0	0
0.001	0
0.002	0
0.003	0
0.004	0
0.005	0
0.006	0
0.007	0
0.008	0
0.009	0
0.01	0
0.011	0
0.012	0
0.013	0
0.014	0
0.015	0
0.016	0
0.017	0
0.018	0
0.019	0
0.02	0
0.021	0
0.022	0
0.023	0
0.024	0
0.025	0
0.026	0
0.027	0
0.028	0
0.029	0
0.03	0
0.031	0
0.032	0
0.033	0
0.034	0
0.035	0
0.036	0
0.037	0
0.038	0
0.039	0
0.04	0
0.041	0
0.042	0
0.043	0
0.044	0
0.045	0
0.046	0
0.047	0
0.048	0
0.049	0
0.05	0
0.051	0
0.052	0
0.053	0
0.054	0
0.055	0
0.056	0
0.057	0
0.058	0
0.059	0
0.06	0
0.061	0
0.062	0
0.063	0
0.064	0
0.065	0
0.066	0
0.067	0
0.068	0
0.069	0
0.07	0
0.071	0
0.072	0
0.073	0
0.074	0
0.075	0
0.076	0
0.077	0
0.078	0
0.079	0
0.08	0
0.081	0
0.082	0
0.083	0
0.084	0
0.085	0
0.086	0
0.087	0
0.088	0
0.089	0
0.09	0
0.091	0
0.092	0
0.093	0
0.094	0
0.095	0
0.096	0
0.097	0
0.098	0
0.099	0
0.1	0
0.101	0
0.102	0
0.103	0
0.104	0
0.105	0
0.106	0
0.107	0
0.108	0
0.109	0
0.11	0
0.111	0
0.112	0
0.113	0
0.114	0
0.115	0
0.116	0
0.117	0
0.118	0
0.119	0
0.12	0
0.121	0
0.122	0
0.123	0
0.124	0
0.125	0
0.126	0
0.127	0
0.128	0
0.129	0
0.13	0
0.131	0
0.132	0
0.133	0
0.134	0
0.135	0
0.136	0
0.137	0
0.138	0
0.139	0
0.14	0
0.141	0
0.142	0
0.143	0
0.144	0
0.145	0
0.146	0
0.147	0
0.148	0
0.149	0
0.15	0
0.151	0
0.152	0
0.153	0
0.154	0
0.155	0
0.156	0
0.157	0
0.158	0
0.159	0
0.16	0
0.161	0
0.162	0
0.163	0
0.164	0
0.165	0
0.166	0
0.167	0
0.168	0
0.169	0
0.17	0
0.171	0
0.172	0
0.173	0
0.174	0
0.175	0
0.176	0
0.177	0
0.178	0
0.179	0
0.18	0
0.181	0
0.182	0
0.183	0
0.184	0
0.185	0
0.186	-0.001
0.187	-0.001
0.188	-0.001
0.189	0
0.19	0
0.191	0
0.192	0
0.193	0
0.194	0
0.195	-0.001
0.196	-0.002
0.197	-0.003
0.198	-0.003
0.199	-0.002
0.2	0.001
0.201	0.004
0.202	0.009
0.203	0.013
0.204	0.016
0.205	0.017
0.206	0.016
0.207	0.012
0.208	0.007
0.209	0
0.21	-0.007
0.211	-0.013
0.212	-0.018
0.213	-0.022
0.214	-0.025
0.215	-0.026
0.216	-0.025
0.217	-0.023
0.218	-0.021
0.219	-0.017
0.22	-0.014
0.221	-0.01
0.222	-0.007
0.223	-0.005
0.224	-0.004
0.225	-0.004
0.226	-0.005
0.227	-0.006
0.228	-0.009
0.229	-0.012
0.23	-0.016
0.231	-0.02
0.232	-0.023
0.233	-0.026
0.234	-0.029
0.235	-0.032
0.236	-0.033
0.237	-0.035
0.238	-0.035
0.239	-0.036
0.24	-0.036
0.241	-0.036
0.242	-0.035
0.243	-0.035
0.244	-0.035
0.245	-0.034
0.246	-0.033
0.247	-0.032
0.248	-0.031
0.249	-0.029
0.25	-0.027
0.251	-0.024
0.252	-0.02
0.253	-0.016
0.254	-0.012
0.255	-0.008
0.256	-0.004
0.257	0
0.258	0.002
0.259	0.004
0.26	0.005
0.261	0.004
0.262	0.002
0.263	-0.001
0.264	-0.005
0.265	-0.01
0.266	-0.016
0.267	-0.021
0.268	-0.026
0.269	-0.03
0.27	-0.033
0.271	-0.035
0.272	-0.036
0.273	-0.035
0.274	-0.034
0.275	-0.031
0.276	-0.027
0.277	-0.023
0.278	-0.02
0.279	-0.016
0.28	-0.014
0.281	-0.012
0.282	-0.012
0.283	-0.012
0.284	-0.014
0.285	-0.017
0.286	-0.02
0.287	-0.023
0.288	-0.026
0.289	-0.029
0.29	-0.03
0.291	-0.031
0.292	-0.029
0.293	-0.027
0.294	-0.023
0.295	-0.018
0.296	-0.012
0.297	-0.006
0.298	0
0.299	0.006
0.3	0.011
0.301	0.014
0.302	0.016
0.303	0.016
0.304	0.014
0.305	0.011
0.306	0.007
0.307	0.002
0.308	-0.004
0.309	-0.01
0.31	-0.015
0.311	-0.02
0.312	-0.023
0.313	-0.025
0.314	-0.025
0.315	-0.024
0.316	-0.022
0.317	-0.018
0.318	-0.015
0.319	-0.011
0.32	-0.007
0.321	-0.005
0.322	-0.003
0.323	-0.002
0.324	-0.003
0.325	-0.006
0.326	-0.009
0.327	-0.013
0.328	-0.018
0.329	-0.024
0.33	-0.029
0.331	-0.033
0.332	-0.037
0.333	-0.04
0.334	-0.041
0.335	-0.042
0.336	-0.041
0.337	-0.04
0.338	-0.038
0.339	-0.036
0.34	-0.034
0.341	-0.033
0.342	-0.032
0.343	-0.031
0.344	-0.032
0.345	-0.034
0.346	-0.036
0.347	-0.039
0.348	-0.042
0.349	-0.045
0.35	-0.048
0.351	-0.049
0.352	-0.05
0.353	-0.05
0.354	-0.048
0.355	-0.046
0.356	-0.042
0.357	-0.037
0.358	-0.032
0.359	-0.027
0.36	-0.022
0.361	-0.018
0.362	-0.014
0.363	-0.011
0.364	-0.01
0.365	-0.009
0.366	-0.01
0.367	-0.012
0.368	-0.014
0.369	-0.016
0.37	-0.019
0.371	-0.021
0.372	-0.023
0.373	-0.025
0.374	-0.026
0.375	-0.026
0.376	-0.025
0.377	-0.024
0.378	-0.023
0.379	-0.022
0.38	-0.021
0.381	-0.021
0.382	-0.021
0.383	-0.021
0.384	-0.023
0.385	-0.024
0.386	-0.027
0.387	-0.029
0.388	-0.031
0.389	-0.032
0.39	-0.033
0.391	-0.033
0.392	-0.032
0.393	-0.03
0.394	-0.026
0.395	-0.022
0.396	-0.017
0.397	-0.012
0.398	-0.007
0.399	-0.002
0.4	0.001
0.401	0.004
0.402	0.005
0.403	0.004
0.404	0.002
0.405	-0.001
0.406	-0.006
0.407	-0.011
0.408	-0.017
0.409	-0.022
0.41	-0.027
0.411	-0.031
0.412	-0.034
0.413	-0.035
0.414	-0.034
0.415	-0.031
0.416	-0.027
0.417	-0.021
0.418	-0.014
0.419	-0.006
0.42	0.002
0.421	0.009
0.422	0.016
0.423	0.022
0.424	0.026
0.425	0.028
0.426	0.029
0.427	0.028
0.428	0.026
0.429	0.023
0.43	0.018
0.431	0.014
0.432	0.009
0.433	0.004
0.434	0
0.435	-0.004
0.436	-0.006
0.437	-0.008
0.438	-0.01
0.439	-0.01
0.44	-0.01
0.441	-0.01
0.442	-0.009
0.443	-0.008
0.444	-0.008
0.445	-0.007
0.446	-0.007
0.447	-0.007
0.448	-0.008
0.449	-0.008
0.45	-0.008
0.451	-0.008
0.452	-0.008
0.453	-0.008
0.454	-0.008
0.455	-0.007
0.456	-0.006
0.457	-0.005
0.458	-0.004
0.459	-0.003
0.46	-0.002
0.461	-0.001
0.462	0
0.463	0
0.464	0
0.465	0
0.466	0
0.467	0.001
0.468	0.001
0.469	0.002
0.47	0.003
0.471	0.005
0.472	0.008
0.473	0.011
0.474	0.015
0.475	0.019
0.476	0.022
0.477	0.026
0.478	0.029
0.479	0.032
0.48	0.034
0.481	0.035
0.482	0.035
0.483	0.034
0.484	0.032
0.485	0.029
0.486	0.027
0.487	0.023
0.488	0.02
0.489	0.017
0.49	0.014
0.491	0.012
0.492	0.01
0.493	0.009
0.494	0.008
0.495	0.007
0.496	0.007
0.497	0.006
0.498	0.005
0.499	0.004
0.5	0.001
0.501	-0.001
0.502	-0.005
0.503	-0.008
0.504	-0.012
0.505	-0.016
0.506	-0.02
0.507	-0.023
0.508	-0.025
0.509	-0.025
0.51	-0.025
0.511	-0.022
0.512	-0.019
0.513	-0.014
0.514	-0.008
0.515	-0.002
0.516	0.004
0.517	0.01
0.518	0.015
0.519	0.019
0.52	0.022
0.521	0.022
0.522	0.021
0.523	0.018
0.524	0.013
0.525	0.008
0.526	0.002
0.527	-0.004
0.528	-0.01
0.529	-0.015
0.53	-0.018
0.531	-0.019
0.532	-0.018
0.533	-0.015
0.534	-0.011
0.535	-0.005
0.536	0.003
0.537	0.01
0.538	0.017
0.539	0.024
0.54	0.029
0.541	0.032
0.542	0.032
0.543	0.031
0.544	0.027
0.545	0.021
0.546	0.013
0.547	0.003
0.548	-0.007
0.549	-0.017
0.55	-0.027
0.551	-0.035
0.552	-0.042
0.553	-0.047
0.554	-0.05
0.555	-0.05
0.556	-0.049
0.557	-0.046
0.558	-0.042
0.559	-0.038
0.56	-0.033
0.561	-0.028
0.562	-0.024
0.563	-0.021
0.564	-0.019
0.565	-0.018
0.566	-0.019
0.567	-0.02
0.568	-0.022
0.569	-0.024
0.57	-0.026
0.571	-0.028
0.572	-0.029
0.573	-0.028
0.574	-0.027
0.575	-0.025
0.576	-0.022
0.577	-0.018
0.578	-0.014
0.579	-0.01
0.58	-0.007
0.581	-0.004
0.582	-0.002
0.583	-0.002
0.584	-0.002
0.585	-0.004
0.586	-0.007
0.587	-0.011
0.588	-0.015
0.589	-0.019
0.59	-0.022
0.591	-0.025
0.592	-0.026
0.593	-0.026
0.594	-0.024
0.595	-0.02
0.596	-0.016
0.597	-0.01
0.598	-0.003
0.599	0.004
0.6	0.01
0.601	0.016
0.602	0.022
0.603	0.025
0.604	0.028
0.605	0.029
0.606	0.028
0.607	0.026
0.608	0.024
0.609	0.02
0.61	0.017
0.611	0.013
0.612	0.01
0.613	0.008
0.614	0.007
0.615	0.006
0.616	0.007
0.617	0.008
0.618	0.011
0.619	0.014
0.62	0.017
0.621	0.019
0.622	0.022
0.623	0.024
0.624	0.025
0.625	0.026
0.626	0.026
0.627	0.026
0.628	0.025
0.629	0.024
0.63	0.024
0.631	0.023
0.632	0.023
0.633	0.024
0.634	0.025
0.635	0.027
0.636	0.03
0.637	0.032
0.638	0.035
0.639	0.037
0.64	0.039
0.641	0.04
0.642	0.04
0.643	0.039
0.644	0.037
0.645	0.034
0.646	0.03
0.647	0.025
0.648	0.02
0.649	0.015
0.65	0.011
0.651	0.007
0.652	0.004
0.653	0.001
0.654	0
0.655	-0.001
0.656	0
0.657	0.001
0.658	0.002
0.659	0.003
0.66	0.004
0.661	0.003
0.662	0.002
0.663	0
0.664	-0.005
0.665	-0.01
0.666	-0.018
0.667	-0.026
0.668	-0.037
0.669	-0.049
0.67	-0.062
0.671	-0.076
0.672	-0.091
0.673	-0.106
0.674	-0.123
0.675	-0.139
0.676	-0.157
0.677	-0.175
0.678	-0.193
0.679	-0.211
0.68	-0.229
0.681	-0.246
0.682	-0.263
0.683	-0.277
0.684	-0.29
0.685	-0.3
0.686	-0.306
0.687	-0.308
0.688	-0.304
0.689	-0.295
0.69	-0.28
0.691	-0.259
0.692	-0.231
0.693	-0.196
0.694	-0.155
0.695	-0.109
0.696	-0.058
0.697	-0.003
0.698	0.056
0.699	0.116
0.7	0.178
0.701	0.239
0.702	0.3
0.703	0.359
0.704	0.415
0.705	0.468
0.706	0.517
0.707	0.563
0.708	0.604
0.709	0.64
0.71	0.672
0.711	0.699
0.712	0.721
0.713	0.738
0.714	0.749
0.715	0.755
0.716	0.755
0.717	0.751
0.718	0.74
0.719	0.723
0.72	0.701
0.721	0.674
0.722	0.643
0.723	0.608
0.724	0.57
0.725	0.529
0.726	0.488
0.727	0.447
0.728	0.407
0.729	0.368
0.73	0.333
0.731	0.301
0.732	0.272
0.733	0.247
0.734	0.226
0.735	0.208
0.736	0.193
0.737	0.181
0.738	0.169
0.739	0.158
0.74	0.148
0.741	0.136
0.742	0.123
0.743	0.108
0.744	0.092
0.745	0.075
0.746	0.056
0.747	0.037
0.748	0.018
0.749	0
0.75	-0.016
0.751	-0.03
0.752	-0.041
0.753	-0.049
0.754	-0.053
0.755	-0.054
0.756	-0.052
0.757	-0.047
0.758	-0.04
0.759	-0.032
0.76	-0.024
0.761	-0.016
0.762	-0.008
0.763	-0.003
0.764	0
0.765	0.001
0.766	-0.001
0.767	-0.004
0.768	-0.01
0.769	-0.017
0.77	-0.024
0.771	-0.032
0.772	-0.039
0.773	-0.046
0.774	-0.051
0.775	-0.054
0.776	-0.056
0.777	-0.057
0.778	-0.055
0.779	-0.053
0.78	-0.05
0.781	-0.047
0.782	-0.044
0.783	-0.042
0.784	-0.041
0.785	-0.041
0.786	-0.042
0.787	-0.044
0.788	-0.047
0.789	-0.05
0.79	-0.054
0.791	-0.058
0.792	-0.061
0.793	-0.064
0.794	-0.066
0.795	-0.067
0.796	-0.068
0.797	-0.067
0.798	-0.066
0.799	-0.064
0.8	-0.063
0.801	-0.061
0.802	-0.061
0.803	-0.062
0.804	-0.063
0.805	-0.066
0.806	-0.07
0.807	-0.075
0.808	-0.08
0.809	-0.086
0.81	-0.091
0.811	-0.096
0.812	-0.1
0.813	-0.103
0.814	-0.104
0.815	-0.104
0.816	-0.102
0.817	-0.098
0.818	-0.094
0.819	-0.088
0.82	-0.082
0.821	-0.076
0.822	-0.07
0.823	-0.065
0.824	-0.061
0.825	-0.058
0.826	-0.057
0.827	-0.056
0.828	-0.058
0.829	-0.06
0.83	-0.063
0.831	-0.067
0.832	-0.071
0.833	-0.075
0.834	-0.079
0.835	-0.083
0.836	-0.086
0.837	-0.089
0.838	-0.091
0.839	-0.092
0.84	-0.094
0.841	-0.095
0.842	-0.096
0.843	-0.096
0.844	-0.097
0.845	-0.098
0.846	-0.099
0.847	-0.1
0.848	-0.101
0.849	-0.102
0.85	-0.102
0.851	-0.102
0.852	-0.101
0.853	-0.1
0.854	-0.098
0.855	-0.096
0.856	-0.094
0.857	-0.092
0.858	-0.09
0.859	-0.089
0.86	-0.088
0.861	-0.089
0.862	-0.091
0.863	-0.094
0.864	-0.098
0.865	-0.103
0.866	-0.108
0.867	-0.114
0.868	-0.12
0.869	-0.126
0.87	-0.131
0.871	-0.136
0.872	-0.139
0.873	-0.14
0.874	-0.14
0.875	-0.139
0.876	-0.136
0.877	-0.132
0.878	-0.128
0.879	-0.124
0.88	-0.119
0.881	-0.115
0.882	-0.112
0.883	-0.11
0.884	-0.11
0.885	-0.11
0.886	-0.112
0.887	-0.114
0.888	-0.118
0.889	-0.122
0.89	-0.126
0.891	-0.131
0.892	-0.135
0.893	-0.138
0.894	-0.141
0.895	-0.143
0.896	-0.145
0.897	-0.146
0.898	-0.146
0.899	-0.146
0.9	-0.146
0.901	-0.146
0.902	-0.146
0.903	-0.146
0.904	-0.147
0.905	-0.148
0.906	-0.148
0.907	-0.149
0.908	-0.149
0.909	-0.148
0.91	-0.147
0.911	-0.145
0.912	-0.143
0.913	-0.139
0.914	-0.135
0.915	-0.131
0.916	-0.126
0.917	-0.122
0.918	-0.118
0.919	-0.115
0.92	-0.113
0.921	-0.113
0.922	-0.113
0.923	-0.116
0.924	-0.119
0.925	-0.124
0.926	-0.129
0.927	-0.134
0.928	-0.138
0.929	-0.142
0.93	-0.144
0.931	-0.145
0.932	-0.144
0.933	-0.14
0.934	-0.135
0.935	-0.128
0.936	-0.119
0.937	-0.11
0.938	-0.101
0.939	-0.092
0.94	-0.084
0.941	-0.077
0.942	-0.073
0.943	-0.071
0.944	-0.072
0.945	-0.074
0.946	-0.08
0.947	-0.087
0.948	-0.095
0.949	-0.104
0.95	-0.113
0.951	-0.121
0.952	-0.128
0.953	-0.133
0.954	-0.136
0.955	-0.136
0.956	-0.135
0.957	-0.131
0.958	-0.124
0.959	-0.116
0.96	-0.107
0.961	-0.098
0.962	-0.088
0.963	-0.079
0.964	-0.07
0.965	-0.063
0.966	-0.057
0.967	-0.052
0.968	-0.049
0.969	-0.047
0.97	-0.046
0.971	-0.045
0.972	-0.045
0.973	-0.045
0.974	-0.045
0.975	-0.045
0.976	-0.044
0.977	-0.042
0.978	-0.039
0.979	-0.036
0.98	-0.033
0.981	-0.029
0.982	-0.025
0.983	-0.021
0.984	-0.017
0.985	-0.013
0.986	-0.01
0.987	-0.006
0.988	-0.003
0.989	0
0.99	0.002
0.991	0.005
0.992	0.007
0.993	0.01
0.994	0.011
0.995	0.013
0.996	0.014
0.997	0.015
0.998	0.014
0.999	0.013
1	0.012
1.001	0.009
1.002	0.006
1.003	0.002
1.004	-0.002
1.005	-0.006
1.006	-0.009
1.007	-0.012
1.008	-0.014
1.009	-0.014
1.01	-0.013
1.011	-0.01
1.012	-0.005
1.013	0.001
1.014	0.009
1.015	0.018
1.016	0.027
1.017	0.036
1.018	0.044
1.019	0.052
1.02	0.058
1.021	0.062
1.022	0.063
1.023	0.063
1.024	0.061
1.025	0.056
1.026	0.051
1.027	0.044
1.028	0.037
1.029	0.03
1.03	0.024
1.031	0.019
1.032	0.016
1.033	0.015
1.034	0.016
1.035	0.018
1.036	0.022
1.037	0.028
1.038	0.034
1.039	0.04
1.04	0.047
1.041	0.052
1.042	0.056
1.043	0.059
1.044	0.061
1.045	0.06
1.046	0.059
1.047	0.056
1.048	0.052
1.049	0.048
1.05	0.044
1.051	0.04
1.052	0.038
1.053	0.036
1.054	0.036
1.055	0.037
1.056	0.04
1.057	0.044
1.058	0.048
1.059	0.052
1.06	0.057
1.061	0.061
1.062	0.064
1.063	0.066
1.064	0.067
1.065	0.066
1.066	0.064
1.067	0.061
1.068	0.058
1.069	0.054
1.07	0.05
1.071	0.047
1.072	0.044
1.073	0.043
1.074	0.043
1.075	0.043
1.076	0.045
1.077	0.048
1.078	0.051
1.079	0.054
1.08	0.057
1.081	0.06
1.082	0.061
1.083	0.061
1.084	0.059
1.085	0.056
1.086	0.051
1.087	0.045
1.088	0.038
1.089	0.031
1.09	0.023
1.091	0.016
1.092	0.01
1.093	0.006
1.094	0.002
1.095	0.001
1.096	0
1.097	0.002
1.098	0.005
1.099	0.009
1.1	0.013
1.101	0.018
1.102	0.023
1.103	0.027
1.104	0.031
1.105	0.033
1.106	0.034
1.107	0.035
1.108	0.034
1.109	0.032
1.11	0.03
1.111	0.027
1.112	0.024
1.113	0.021
1.114	0.019
1.115	0.017
1.116	0.015
1.117	0.014
1.118	0.014
1.119	0.014
1.12	0.014
1.121	0.014
1.122	0.015
1.123	0.015
1.124	0.015
1.125	0.015
1.126	0.015
1.127	0.014
1.128	0.013
1.129	0.012
1.13	0.011
1.131	0.009
1.132	0.008
1.133	0.006
1.134	0.005
1.135	0.003
1.136	0.001
1.137	-0.001
1.138	-0.003
1.139	-0.006
1.14	-0.008
1.141	-0.012
1.142	-0.015
1.143	-0.018
1.144	-0.021
1.145	-0.024
1.146	-0.026
1.147	-0.027
1.148	-0.027
1.149	-0.025
1.15	-0.023
1.151	-0.019
1.152	-0.014
1.153	-0.008
1.154	-0.001
1.155	0.006
1.156	0.013
1.157	0.019
1.158	0.024
1.159	0.028
1.16	0.03
1.161	0.03
1.162	0.028
1.163	0.025
1.164	0.021
1.165	0.015
1.166	0.009
1.167	0.003
1.168	-0.003
1.169	-0.008
1.17	-0.011
1.171	-0.013
1.172	-0.013
1.173	-0.012
1.174	-0.009
1.175	-0.005
1.176	0
1.177	0.005
1.178	0.01
1.179	0.013
1.18	0.016
1.181	0.016
1.182	0.015
1.183	0.012
1.184	0.007
1.185	0.001
1.186	-0.006
1.187	-0.014
1.188	-0.021
1.189	-0.027
1.19	-0.031
1.191	-0.034
1.192	-0.034
1.193	-0.032
1.194	-0.028
1.195	-0.021
1.196	-0.013
1.197	-0.004
1.198	0.006
1.199	0.015
1.2	0.024
1.201	0.031
1.202	0.036
1.203	0.039
1.204	0.039
1.205	0.038
1.206	0.034
1.207	0.029
1.208	0.023
1.209	0.016
1.21	0.01
1.211	0.004
1.212	0
1.213	-0.002
1.214	-0.003
1.215	-0.002
1.216	0.001
1.217	0.005
1.218	0.01
1.219	0.015
1.22	0.021
1.221	0.025
1.222	0.028
1.223	0.03
1.224	0.03
1.225	0.029
1.226	0.025
1.227	0.021
1.228	0.016
1.229	0.01
1.23	0.004
1.231	-0.001
1.232	-0.004
1.233	-0.007
1.234	-0.008
1.235	-0.007
1.236	-0.005
1.237	-0.002
1.238	0.003
1.239	0.007
1.24	0.012
1.241	0.016
1.242	0.02
1.243	0.022
1.244	0.022
1.245	0.022
1.246	0.019
1.247	0.016
1.248	0.012
1.249	0.008
1.25	0.004
1.251	0
1.252	-0.002
1.253	-0.004
1.254	-0.004
1.255	-0.002
1.256	0.001
1.257	0.004
1.258	0.009
1.259	0.014
1.26	0.019
1.261	0.023
1.262	0.027
1.263	0.028
1.264	0.029
1.265	0.028
1.266	0.025
1.267	0.021
1.268	0.016
1.269	0.011
1.27	0.005
1.271	0
1.272	-0.004
1.273	-0.007
1.274	-0.008
1.275	-0.008
1.276	-0.007
1.277	-0.003
1.278	0.001
1.279	0.006
1.28	0.011
1.281	0.017
1.282	0.022
1.283	0.026
1.284	0.029
1.285	0.031
1.286	0.032
1.287	0.031
1.288	0.03
1.289	0.028
1.29	0.026
1.291	0.024
1.292	0.022
1.293	0.02
1.294	0.02
1.295	0.02
1.296	0.021
1.297	0.022
1.298	0.024
1.299	0.026
1.3	0.028
1.301	0.029
1.302	0.03
1.303	0.029
1.304	0.028
1.305	0.026
1.306	0.023
1.307	0.018
1.308	0.014
1.309	0.009
1.31	0.004
1.311	0
1.312	-0.004
1.313	-0.006
1.314	-0.007
1.315	-0.007
1.316	-0.006
1.317	-0.004
1.318	-0.001
1.319	0.002
1.32	0.006
1.321	0.009
1.322	0.012
1.323	0.014
1.324	0.016
1.325	0.016
1.326	0.016
1.327	0.015
1.328	0.013
1.329	0.011
1.33	0.009
1.331	0.007
1.332	0.005
1.333	0.003
1.334	0.002
1.335	0.002
1.336	0.001
1.337	0.001
1.338	0.001
1.339	0.001
1.34	0
1.341	-0.001
1.342	-0.002
1.343	-0.004
1.344	-0.006
1.345	-0.009
1.346	-0.011
1.347	-0.013
1.348	-0.014
1.349	-0.014
1.35	-0.013
1.351	-0.01
1.352	-0.006
1.353	-0.001
1.354	0.006
1.355	0.014
1.356	0.022
1.357	0.031
1.358	0.039
1.359	0.046
1.36	0.051
1.361	0.055
1.362	0.057
1.363	0.056
1.364	0.053
1.365	0.048
1.366	0.041
1.367	0.033
1.368	0.024
1.369	0.016
1.37	0.008
1.371	0.001
1.372	-0.005
1.373	-0.008
1.374	-0.009
1.375	-0.008
1.376	-0.005
1.377	-0.001
1.378	0.005
1.379	0.011
1.38	0.018
1.381	0.023
1.382	0.028
1.383	0.031
1.384	0.033
1.385	0.033
1.386	0.031
1.387	0.027
1.388	0.023
1.389	0.017
1.39	0.012
1.391	0.007
1.392	0.002
1.393	-0.001
1.394	-0.003
1.395	-0.004
1.396	-0.003
1.397	0
1.398	0.003
1.399	0.007
1.4	0.011
1.401	0.015
1.402	0.018
1.403	0.019
1.404	0.02
1.405	0.02
1.406	0.018
1.407	0.014
1.408	0.011
1.409	0.006
1.41	0.002
1.411	-0.002
1.412	-0.005
1.413	-0.006
1.414	-0.006
1.415	-0.005
1.416	-0.002
1.417	0.003
1.418	0.008
1.419	0.014
1.42	0.021
1.421	0.027
1.422	0.032
1.423	0.036
1.424	0.039
1.425	0.04
1.426	0.039
1.427	0.037
1.428	0.033
1.429	0.028
1.43	0.023
1.431	0.017
1.432	0.012
1.433	0.007
1.434	0.004
1.435	0.001
1.436	0.001
1.437	0.001
1.438	0.004
1.439	0.007
1.44	0.012
1.441	0.017
1.442	0.022
1.443	0.027
1.444	0.032
1.445	0.035
1.446	0.038
1.447	0.04
1.448	0.041
1.449	0.041
1.45	0.04
1.451	0.038
1.452	0.035
1.453	0.033
1.454	0.03
1.455	0.027
1.456	0.025
1.457	0.022
1.458	0.02
1.459	0.018
1.46	0.016
1.461	0.015
1.462	0.013
1.463	0.011
1.464	0.009
1.465	0.008
1.466	0.006
1.467	0.004
1.468	0.003
1.469	0.002
1.47	0.002
1.471	0.002
1.472	0.003
1.473	0.005
1.474	0.007
1.475	0.01
1.476	0.013
1.477	0.017
1.478	0.021
1.479	0.024
1.48	0.027
1.481	0.029
1.482	0.031
1.483	0.031
1.484	0.03
1.485	0.029
1.486	0.026
1.487	0.023
1.488	0.019
1.489	0.015
1.49	0.011
1.491	0.008
1.492	0.005
1.493	0.002
1.494	0
1.495	-0.001
1.496	-0.002
1.497	-0.002
1.498	-0.002
1.499	-0.002
1.5	-0.002
1.501	-0.002
1.502	-0.003
1.503	-0.004
1.504	-0.006
1.505	-0.007
1.506	-0.009
1.507	-0.011
1.508	-0.012
1.509	-0.013
1.51	-0.013
1.511	-0.012
1.512	-0.01
1.513	-0.007
1.514	-0.003
1.515	0.001
1.516	0.006
1.517	0.011
1.518	0.016
1.519	0.02
1.52	0.023
1.521	0.025
1.522	0.026
1.523	0.025
1.524	0.023
1.525	0.019
1.526	0.015
1.527	0.01
1.528	0.005
1.529	0.001
1.53	-0.004
1.531	-0.007
1.532	-0.01
1.533	-0.011
1.534	-0.011
1.535	-0.011
1.536	-0.009
1.537	-0.007
1.538	-0.005
1.539	-0.003
1.54	-0.001
1.541	-0.001
1.542	-0.001
1.543	-0.003
1.544	-0.005
1.545	-0.009
1.546	-0.013
1.547	-0.018
1.548	-0.022
1.549	-0.026
1.55	-0.029
1.551	-0.031
1.552	-0.031
1.553	-0.03
1.554	-0.027
1.555	-0.022
1.556	-0.016
1.557	-0.009
1.558	-0.002
1.559	0.005
1.56	0.012
1.561	0.018
1.562	0.023
1.563	0.026
1.564	0.028
1.565	0.028
1.566	0.027
1.567	0.025
1.568	0.022
1.569	0.019
1.57	0.015
1.571	0.012
1.572	0.01
1.573	0.009
1.574	0.009
1.575	0.01
1.576	0.012
1.577	0.015
1.578	0.018
1.579	0.022
1.58	0.025
1.581	0.028
1.582	0.031
1.583	0.032
1.584	0.033
1.585	0.032
1.586	0.031
1.587	0.029
1.588	0.027
1.589	0.024
1.59	0.021
1.591	0.019
1.592	0.018
1.593	0.017
1.594	0.017
1.595	0.018
1.596	0.02
1.597	0.021
1.598	0.023
1.599	0.024
1.6	0.025
1.601	0.026
1.602	0.026
1.603	0.024
1.604	0.022
1.605	0.02
1.606	0.017
1.607	0.014
1.608	0.012
1.609	0.01
1.61	0.009
1.611	0.009
1.612	0.01
1.613	0.012
1.614	0.016
1.615	0.02
1.616	0.025
1.617	0.029
1.618	0.034
1.619	0.037
1.62	0.039
1.621	0.039
1.622	0.038
1.623	0.035
1.624	0.03
1.625	0.023
1.626	0.016
1.627	0.009
1.628	0.001
1.629	-0.005
1.63	-0.011
1.631	-0.014
1.632	-0.016
1.633	-0.015
1.634	-0.013
1.635	-0.008
1.636	-0.002
1.637	0.005
1.638	0.012
1.639	0.018
1.64	0.024
1.641	0.028
1.642	0.03
1.643	0.03
1.644	0.027
1.645	0.021
1.646	0.014
1.647	0.004
1.648	-0.007
1.649	-0.019
1.65	-0.032
1.651	-0.044
1.652	-0.056
1.653	-0.068
1.654	-0.079
1.655	-0.09
1.656	-0.1
1.657	-0.11
1.658	-0.121
1.659	-0.134
1.66	-0.147
1.661	-0.162
1.662	-0.18
1.663	-0.198
1.664	-0.218
1.665	-0.239
1.666	-0.26
1.667	-0.281
1.668	-0.298
1.669	-0.313
1.67	-0.322
1.671	-0.327
1.672	-0.325
1.673	-0.314
1.674	-0.296
1.675	-0.27
1.676	-0.236
1.677	-0.194
1.678	-0.145
1.679	-0.091
1.68	-0.032
1.681	0.029
1.682	0.092
1.683	0.156
1.684	0.219
1.685	0.28
1.686	0.338
1.687	0.393
1.688	0.443
1.689	0.489
1.69	0.531
1.691	0.568
1.692	0.602
1.693	0.631
1.694	0.655
1.695	0.676
1.696	0.693
1.697	0.707
1.698	0.716
1.699	0.72
1.7	0.72
1.701	0.717
1.702	0.708
1.703	0.695
1.704	0.676
1.705	0.654
1.706	0.627
1.707	0.597
1.708	0.564
1.709	0.528
1.71	0.491
1.711	0.453
1.712	0.416
1.713	0.379
1.714	0.343
1.715	0.31
1.716	0.28
1.717	0.252
1.718	0.226
1.719	0.203
1.72	0.182
1.721	0.164
1.722	0.146
1.723	0.13
1.724	0.115
1.725	0.1
1.726	0.086
1.727	0.072
1.728	0.057
1.729	0.044
1.73	0.03
1.731	0.017
1.732	0.004
1.733	-0.009
1.734	-0.02
1.735	-0.03
1.736	-0.039
1.737	-0.047
1.738	-0.054
1.739	-0.059
1.74	-0.063
1.741	-0.067
1.742	-0.07
1.743	-0.072
1.744	-0.073
1.745	-0.073
1.746	-0.073
1.747	-0.073
1.748	-0.071
1.749	-0.07
1.75	-0.067
1.751	-0.064
1.752	-0.061
1.753	-0.058
1.754	-0.054
1.755	-0.051
1.756	-0.049
1.757	-0.047
1.758	-0.047
1.759	-0.049
1.76	-0.052
1.761	-0.057
1.762	-0.063
1.763	-0.071
1.764	-0.08
1.765	-0.089
1.766	-0.098
1.767	-0.107
1.768	-0.115
1.769	-0.121
1.77	-0.125
1.771	-0.126
1.772	-0.124
1.773	-0.12
1.774	-0.113
1.775	-0.104
1.776	-0.093
1.777	-0.081
1.778	-0.069
1.779	-0.058
1.78	-0.048
1.781	-0.04
1.782	-0.035
1.783	-0.033
1.784	-0.034
1.785	-0.037
1.786	-0.044
1.787	-0.053
1.788	-0.063
1.789	-0.074
1.79	-0.085
1.791	-0.096
1.792	-0.105
1.793	-0.112
1.794	-0.117
1.795	-0.119
1.796	-0.119
1.797	-0.116
1.798	-0.112
1.799	-0.107
1.8	-0.101
1.801	-0.096
1.802	-0.091
1.803	-0.087
1.804	-0.085
1.805	-0.084
1.806	-0.086
1.807	-0.09
1.808	-0.095
1.809	-0.101
1.81	-0.107
1.811	-0.114
1.812	-0.12
1.813	-0.125
1.814	-0.129
1.815	-0.131
1.816	-0.131
1.817	-0.129
1.818	-0.126
1.819	-0.122
1.82	-0.117
1.821	-0.112
1.822	-0.107
1.823	-0.103
1.824	-0.1
1.825	-0.099
1.826	-0.099
1.827	-0.101
1.828	-0.104
1.829	-0.109
1.83	-0.115
1.831	-0.121
1.832	-0.127
1.833	-0.133
1.834	-0.138
1.835	-0.142
1.836	-0.144
1.837	-0.146
1.838	-0.146
1.839	-0.144
1.84	-0.142
1.841	-0.139
1.842	-0.136
1.843	-0.132
1.844	-0.129
1.845	-0.127
1.846	-0.125
1.847	-0.124
1.848	-0.124
1.849	-0.125
1.85	-0.126
1.851	-0.129
1.852	-0.131
1.853	-0.135
1.854	-0.138
1.855	-0.141
1.856	-0.145
1.857	-0.148
1.858	-0.151
1.859	-0.154
1.86	-0.157
1.861	-0.16
1.862	-0.163
1.863	-0.165
1.864	-0.168
1.865	-0.17
1.866	-0.172
1.867	-0.173
1.868	-0.173
1.869	-0.173
1.87	-0.172
1.871	-0.17
1.872	-0.168
1.873	-0.164
1.874	-0.16
1.875	-0.156
1.876	-0.152
1.877	-0.148
1.878	-0.145
1.879	-0.143
1.88	-0.141
1.881	-0.142
1.882	-0.143
1.883	-0.146
1.884	-0.15
1.885	-0.156
1.886	-0.161
1.887	-0.167
1.888	-0.173
1.889	-0.178
1.89	-0.182
1.891	-0.185
1.892	-0.186
1.893	-0.185
1.894	-0.183
1.895	-0.179
1.896	-0.175
1.897	-0.169
1.898	-0.163
1.899	-0.158
1.9	-0.153
1.901	-0.149
1.902	-0.147
1.903	-0.147
1.904	-0.148
1.905	-0.15
1.906	-0.154
1.907	-0.158
1.908	-0.163
1.909	-0.168
1.91	-0.172
1.911	-0.174
1.912	-0.176
1.913	-0.175
1.914	-0.172
1.915	-0.168
1.916	-0.162
1.917	-0.155
1.918	-0.148
1.919	-0.14
1.92	-0.134
1.921	-0.128
1.922	-0.124
1.923	-0.122
1.924	-0.122
1.925	-0.124
1.926	-0.129
1.927	-0.135
1.928	-0.142
1.929	-0.149
1.93	-0.156
1.931	-0.163
1.932	-0.168
1.933	-0.17
1.934	-0.171
1.935	-0.168
1.936	-0.163
1.937	-0.155
1.938	-0.145
1.939	-0.133
1.94	-0.121
1.941	-0.107
1.942	-0.094
1.943	-0.082
1.944	-0.072
1.945	-0.063
1.946	-0.057
1.947	-0.053
1.948	-0.052
1.949	-0.053
1.95	-0.055
1.951	-0.059
1.952	-0.064
1.953	-0.069
1.954	-0.075
1.955	-0.08
1.956	-0.084
1.957	-0.086
1.958	-0.088
1.959	-0.088
1.96	-0.087
1.961	-0.085
1.962	-0.082
1.963	-0.078
1.964	-0.074
1.965	-0.069
1.966	-0.065
1.967	-0.06
1.968	-0.054
1.969	-0.049
1.97	-0.044
1.971	-0.04
1.972	-0.035
1.973	-0.029
1.974	-0.024
1.975	-0.019
1.976	-0.014
1.977	-0.009
1.978	-0.004
1.979	0
1.98	0.003
1.981	0.006
1.982	0.009
1.983	0.01
1.984	0.011
1.985	0.011
1.986	0.01
1.987	0.01
1.988	0.009
1.989	0.008
1.99	0.007
1.991	0.007
1.992	0.007
1.993	0.008
1.994	0.01
1.995	0.012
1.996	0.015
1.997	0.018
1.998	0.02
1.999	0.023
2	0.024
2.001	0.025
2.002	0.025
2.003	0.024
2.004	0.021
2.005	0.018
2.006	0.014
2.007	0.01
2.008	0.006
2.009	0.002
2.01	-0.001
2.011	-0.002
2.012	-0.003
2.013	-0.002
2.014	0
2.015	0.004
2.016	0.009
2.017	0.015
2.018	0.021
2.019	0.028
2.02	0.034
2.021	0.039
2.022	0.043
2.023	0.046
2.024	0.047
2.025	0.047
2.026	0.045
2.027	0.043
2.028	0.039
2.029	0.035
2.03	0.031
2.031	0.027
2.032	0.024
2.033	0.022
2.034	0.021
2.035	0.022
2.036	0.024
2.037	0.028
2.038	0.032
2.039	0.037
2.04	0.042
2.041	0.047
2.042	0.052
2.043	0.056
2.044	0.059
2.045	0.06
2.046	0.06
2.047	0.059
2.048	0.057
2.049	0.054
2.05	0.05
2.051	0.046
2.052	0.042
2.053	0.039
2.054	0.036
2.055	0.033
2.056	0.032
2.057	0.031
2.058	0.031
2.059	0.031
2.06	0.032
2.061	0.033
2.062	0.034
2.063	0.034
2.064	0.035
2.065	0.035
2.066	0.034
2.067	0.034
2.068	0.033
2.069	0.032
2.07	0.031
2.071	0.03
2.072	0.03
2.073	0.03
2.074	0.031
2.075	0.033
2.076	0.035
2.077	0.037
2.078	0.04
2.079	0.042
2.08	0.045
2.081	0.047
2.082	0.048
2.083	0.049
2.084	0.049
2.085	0.048
2.086	0.047
2.087	0.044
2.088	0.042
2.089	0.039
2.09	0.036
2.091	0.033
2.092	0.031
2.093	0.028
2.094	0.026
2.095	0.025
2.096	0.023
2.097	0.022
2.098	0.021
2.099	0.02
2.1	0.018
2.101	0.017
2.102	0.014
2.103	0.011
2.104	0.008
2.105	0.005
2.106	0.002
2.107	-0.001
2.108	-0.003
2.109	-0.005
2.11	-0.006
2.111	-0.006
2.112	-0.004
2.113	-0.002
2.114	0.001
2.115	0.006
2.116	0.01
2.117	0.015
2.118	0.02
2.119	0.024
2.12	0.027
2.121	0.029
2.122	0.03
2.123	0.03
2.124	0.028
2.125	0.025
2.126	0.022
2.127	0.018
2.128	0.014
2.129	0.01
2.13	0.007
2.131	0.005
2.132	0.004
2.133	0.004
2.134	0.005
2.135	0.007
2.136	0.011
2.137	0.014
2.138	0.018
2.139	0.021
2.14	0.024
2.141	0.026
2.142	0.026
2.143	0.026
2.144	0.024
2.145	0.02
2.146	0.016
2.147	0.012
2.148	0.007
2.149	0.003
2.15	0
2.151	-0.002
2.152	-0.003
2.153	-0.003
2.154	-0.001
2.155	0.003
2.156	0.007
2.157	0.013
2.158	0.018
2.159	0.023
2.16	0.028
2.161	0.031
2.162	0.033
2.163	0.034
2.164	0.032
2.165	0.03
2.166	0.026
2.167	0.021
2.168	0.016
2.169	0.011
2.17	0.007
2.171	0.004
2.172	0.002
2.173	0.002
2.174	0.004
2.175	0.007
2.176	0.012
2.177	0.018
2.178	0.025
2.179	0.032
2.18	0.038
2.181	0.043
2.182	0.046
2.183	0.048
2.184	0.048
2.185	0.046
2.186	0.042
2.187	0.036
2.188	0.03
2.189	0.023
2.19	0.017
2.191	0.011
2.192	0.006
2.193	0.003
2.194	0.002
2.195	0.003
2.196	0.005
2.197	0.009
2.198	0.014
2.199	0.02
2.2	0.025
2.201	0.03
2.202	0.034
2.203	0.037
2.204	0.038
2.205	0.036
2.206	0.033
2.207	0.029
2.208	0.023
2.209	0.017
2.21	0.01
2.211	0.004
2.212	-0.001
2.213	-0.005
2.214	-0.006
2.215	-0.006
2.216	-0.004
2.217	0
2.218	0.006
2.219	0.014
2.22	0.021
2.221	0.029
2.222	0.036
2.223	0.043
2.224	0.047
2.225	0.05
2.226	0.05
2.227	0.048
2.228	0.044
2.229	0.038
2.23	0.031
2.231	0.022
2.232	0.013
2.233	0.004
2.234	-0.004
2.235	-0.012
2.236	-0.018
2.237	-0.022
2.238	-0.025
2.239	-0.026
2.24	-0.026
2.241	-0.024
2.242	-0.02
2.243	-0.016
2.244	-0.011
2.245	-0.006
2.246	0
2.247	0.005
2.248	0.01
2.249	0.015
2.25	0.019
2.251	0.022
2.252	0.025
2.253	0.027
2.254	0.028
2.255	0.029
2.256	0.029
2.257	0.028
2.258	0.027
2.259	0.025
2.26	0.023
2.261	0.02
2.262	0.016
2.263	0.012
2.264	0.008
2.265	0.005
2.266	0.001
2.267	-0.001
2.268	-0.003
2.269	-0.003
2.27	-0.002
2.271	0
2.272	0.003
2.273	0.008
2.274	0.014
2.275	0.02
2.276	0.027
2.277	0.033
2.278	0.039
2.279	0.043
2.28	0.046
2.281	0.047
2.282	0.046
2.283	0.043
2.284	0.037
2.285	0.03
2.286	0.021
2.287	0.012
2.288	0.002
2.289	-0.008
2.29	-0.016
2.291	-0.023
2.292	-0.029
2.293	-0.032
2.294	-0.033
2.295	-0.031
2.296	-0.028
2.297	-0.023
2.298	-0.016
2.299	-0.009
2.3	-0.002
2.301	0.005
2.302	0.011
2.303	0.015
2.304	0.018
2.305	0.02
2.306	0.019
2.307	0.017
2.308	0.015
2.309	0.011
2.31	0.007
2.311	0.004
2.312	0.001
2.313	-0.001
2.314	-0.002
2.315	-0.001
2.316	0.001
2.317	0.004
2.318	0.007
2.319	0.011
2.32	0.015
2.321	0.019
2.322	0.021
2.323	0.023
2.324	0.023
2.325	0.022
2.326	0.019
2.327	0.015
2.328	0.01
2.329	0.005
2.33	0
2.331	-0.006
2.332	-0.01
2.333	-0.013
2.334	-0.014
2.335	-0.014
2.336	-0.013
2.337	-0.01
2.338	-0.006
2.339	-0.001
2.34	0.004
2.341	0.009
2.342	0.013
2.343	0.016
2.344	0.019
2.345	0.02
2.346	0.019
2.347	0.017
2.348	0.014
2.349	0.01
2.35	0.006
2.351	0.001
2.352	-0.003
2.353	-0.007
2.354	-0.009
2.355	-0.011
2.356	-0.011
2.357	-0.011
2.358	-0.009
2.359	-0.007
2.36	-0.005
2.361	-0.003
2.362	-0.001
2.363	0.001
2.364	0.001
2.365	0
2.366	-0.001
2.367	-0.003
2.368	-0.006
2.369	-0.01
2.37	-0.013
2.371	-0.016
2.372	-0.018
2.373	-0.019
2.374	-0.018
2.375	-0.016
2.376	-0.012
2.377	-0.007
2.378	-0.001
2.379	0.007
2.38	0.015
2.381	0.023
2.382	0.03
2.383	0.037
2.384	0.043
2.385	0.047
2.386	0.049
2.387	0.05
2.388	0.048
2.389	0.046
2.39	0.041
2.391	0.036
2.392	0.031
2.393	0.025
2.394	0.02
2.395	0.015
2.396	0.011
2.397	0.008
2.398	0.007
2.399	0.006
2.4	0.007
2.401	0.008
2.402	0.01
2.403	0.013
2.404	0.016
2.405	0.019
2.406	0.022
2.407	0.025
2.408	0.027
2.409	0.028
2.41	0.029
2.411	0.029
2.412	0.028
2.413	0.027
2.414	0.026
2.415	0.023
2.416	0.021
2.417	0.018
2.418	0.015
2.419	0.012
2.42	0.009
2.421	0.006
2.422	0.004
2.423	0.001
2.424	-0.001
2.425	-0.003
2.426	-0.004
2.427	-0.004
2.428	-0.004
2.429	-0.002
2.43	0
2.431	0.004
2.432	0.008
2.433	0.012
2.434	0.017
2.435	0.022
2.436	0.027
2.437	0.031
2.438	0.033
2.439	0.035
2.44	0.035
2.441	0.033
2.442	0.029
2.443	0.024
2.444	0.017
2.445	0.009
2.446	0
2.447	-0.008
2.448	-0.017
2.449	-0.024
2.45	-0.03
2.451	-0.034
2.452	-0.036
2.453	-0.036
2.454	-0.034
2.455	-0.03
2.456	-0.024
2.457	-0.017
2.458	-0.008
2.459	0
2.46	0.008
2.461	0.015
2.462	0.021
2.463	0.025
2.464	0.028
2.465	0.028
2.466	0.027
2.467	0.024
2.468	0.02
2.469	0.016
2.47	0.011
2.471	0.006
2.472	0.002
2.473	-0.001
2.474	-0.003
2.475	-0.003
2.476	-0.002
2.477	0.001
2.478	0.004
2.479	0.008
2.48	0.013
2.481	0.017
2.482	0.021
2.483	0.024
2.484	0.026
2.485	0.027
2.486	0.027
2.487	0.025
2.488	0.022
2.489	0.019
2.49	0.014
2.491	0.01
2.492	0.006
2.493	0.002
2.494	-0.001
2.495	-0.003
2.496	-0.004
2.497	-0.005
2.498	-0.004
2.499	-0.003
2.5	-0.002
2.501	0
2.502	0.001
2.503	0.002
2.504	0.002
2.505	0.002
2.506	0.001
2.507	-0.001
2.508	-0.004
2.509	-0.006
2.51	-0.009
2.511	-0.012
2.512	-0.015
2.513	-0.017
2.514	-0.018
2.515	-0.019
2.516	-0.018
2.517	-0.017
2.518	-0.015
2.519	-0.013
2.52	-0.01
2.521	-0.007
2.522	-0.004
2.523	-0.001
2.524	0.001
2.525	0.003
2.526	0.004
2.527	0.005
2.528	0.005
2.529	0.004
2.53	0.003
2.531	0.002
2.532	0
2.533	-0.002
2.534	-0.004
2.535	-0.006
2.536	-0.009
2.537	-0.011
2.538	-0.014
2.539	-0.017
2.54	-0.02
2.541	-0.023
2.542	-0.027
2.543	-0.031
2.544	-0.035
2.545	-0.039
2.546	-0.042
2.547	-0.045
2.548	-0.048
2.549	-0.049
2.55	-0.05
2.551	-0.049
2.552	-0.048
2.553	-0.045
2.554	-0.042
2.555	-0.038
2.556	-0.033
2.557	-0.028
2.558	-0.024
2.559	-0.02
2.56	-0.017
2.561	-0.015
2.562	-0.014
2.563	-0.014
2.564	-0.015
2.565	-0.017
2.566	-0.02
2.567	-0.022
2.568	-0.025
2.569	-0.027
2.57	-0.028
2.571	-0.027
2.572	-0.026
2.573	-0.023
2.574	-0.019
2.575	-0.013
2.576	-0.006
2.577	0.001
2.578	0.008
2.579	0.015
2.58	0.021
2.581	0.026
2.582	0.03
2.583	0.032
2.584	0.032
2.585	0.03
2.586	0.026
2.587	0.022
2.588	0.016
2.589	0.01
2.59	0.004
2.591	-0.002
2.592	-0.007
2.593	-0.011
2.594	-0.013
2.595	-0.014
2.596	-0.014
2.597	-0.013
2.598	-0.011
2.599	-0.008
2.6	-0.004
2.601	-0.001
2.602	0.001
2.603	0.003
2.604	0.005
2.605	0.005
2.606	0.005
2.607	0.004
2.608	0.002
2.609	0
2.61	-0.001
2.611	-0.002
2.612	-0.003
2.613	-0.002
2.614	-0.001
2.615	0.002
2.616	0.005
2.617	0.009
2.618	0.013
2.619	0.018
2.62	0.023
2.621	0.027
2.622	0.03
2.623	0.032
2.624	0.033
2.625	0.033
2.626	0.032
2.627	0.029
2.628	0.026
2.629	0.023
2.63	0.019
2.631	0.015
2.632	0.012
2.633	0.01
2.634	0.009
2.635	0.008
2.636	0.009
2.637	0.01
2.638	0.012
2.639	0.014
2.64	0.017
2.641	0.019
2.642	0.02
2.643	0.021
2.644	0.022
2.645	0.021
2.646	0.02
2.647	0.017
2.648	0.014
2.649	0.011
2.65	0.008
2.651	0.005
2.652	0.003
2.653	0.001
2.654	0
2.655	-0.001
2.656	-0.001
2.657	0
2.658	0
2.659	0
2.66	-0.001
2.661	-0.003
2.662	-0.007
2.663	-0.013
2.664	-0.021
2.665	-0.032
2.666	-0.046
2.667	-0.063
2.668	-0.083
2.669	-0.105
2.67	-0.129
2.671	-0.155
2.672	-0.182
2.673	-0.208
2.674	-0.235
2.675	-0.261
2.676	-0.285
2.677	-0.306
2.678	-0.324
2.679	-0.337
2.68	-0.346
2.681	-0.35
2.682	-0.348
2.683	-0.339
2.684	-0.323
2.685	-0.3
2.686	-0.271
2.687	-0.234
2.688	-0.191
2.689	-0.141
2.69	-0.086
2.691	-0.026
2.692	0.038
2.693	0.105
2.694	0.173
2.695	0.241
2.696	0.308
2.697	0.372
2.698	0.433
2.699	0.489
2.7	0.539
2.701	0.582
2.702	0.619
2.703	0.649
2.704	0.671
2.705	0.686
2.706	0.694
2.707	0.698
2.708	0.695
2.709	0.688
2.71	0.677
2.711	0.664
2.712	0.648
2.713	0.631
2.714	0.611
2.715	0.591
2.716	0.569
2.717	0.547
2.718	0.524
2.719	0.499
2.72	0.474
2.721	0.447
2.722	0.419
2.723	0.39
2.724	0.36
2.725	0.33
2.726	0.3
2.727	0.27
2.728	0.24
2.729	0.212
2.73	0.186
2.731	0.163
2.732	0.141
2.733	0.122
2.734	0.106
2.735	0.092
2.736	0.08
2.737	0.069
2.738	0.06
2.739	0.052
2.74	0.044
2.741	0.036
2.742	0.027
2.743	0.018
2.744	0.009
2.745	-0.001
2.746	-0.012
2.747	-0.022
2.748	-0.031
2.749	-0.04
2.75	-0.047
2.751	-0.052
2.752	-0.056
2.753	-0.057
2.754	-0.056
2.755	-0.053
2.756	-0.049
2.757	-0.043
2.758	-0.037
2.759	-0.031
2.76	-0.025
2.761	-0.021
2.762	-0.018
2.763	-0.017
2.764	-0.019
2.765	-0.022
2.766	-0.027
2.767	-0.033
2.768	-0.041
2.769	-0.049
2.77	-0.056
2.771	-0.063
2.772	-0.069
2.773	-0.073
2.774	-0.075
2.775	-0.075
2.776	-0.074
2.777	-0.071
2.778	-0.066
2.779	-0.061
2.78	-0.055
2.781	-0.05
2.782	-0.046
2.783	-0.043
2.784	-0.042
2.785	-0.043
2.786	-0.046
2.787	-0.05
2.788	-0.056
2.789	-0.062
2.79	-0.07
2.791	-0.078
2.792	-0.085
2.793	-0.092
2.794	-0.097
2.795	-0.101
2.796	-0.104
2.797	-0.106
2.798	-0.106
2.799	-0.105
2.8	-0.103
2.801	-0.1
2.802	-0.098
2.803	-0.095
2.804	-0.093
2.805	-0.091
2.806	-0.09
2.807	-0.089
2.808	-0.088
2.809	-0.088
2.81	-0.087
2.811	-0.087
2.812	-0.086
2.813	-0.085
2.814	-0.083
2.815	-0.08
2.816	-0.078
2.817	-0.075
2.818	-0.072
2.819	-0.069
2.82	-0.067
2.821	-0.065
2.822	-0.065
2.823	-0.066
2.824	-0.068
2.825	-0.071
2.826	-0.075
2.827	-0.079
2.828	-0.084
2.829	-0.089
2.83	-0.094
2.831	-0.098
2.832	-0.1
2.833	-0.102
2.834	-0.103
2.835	-0.102
2.836	-0.1
2.837	-0.098
2.838	-0.095
2.839	-0.092
2.84	-0.089
2.841	-0.088
2.842	-0.087
2.843	-0.087
2.844	-0.089
2.845	-0.092
2.846	-0.096
2.847	-0.1
2.848	-0.106
2.849	-0.111
2.85	-0.116
2.851	-0.12
2.852	-0.122
2.853	-0.124
2.854	-0.124
2.855	-0.122
2.856	-0.119
2.857	-0.114
2.858	-0.109
2.859	-0.104
2.86	-0.098
2.861	-0.094
2.862	-0.09
2.863	-0.088
2.864	-0.087
2.865	-0.089
2.866	-0.091
2.867	-0.096
2.868	-0.101
2.869	-0.108
2.87	-0.114
2.871	-0.121
2.872	-0.127
2.873	-0.132
2.874	-0.136
2.875	-0.138
2.876	-0.14
2.877	-0.14
2.878	-0.139
2.879	-0.138
2.88	-0.136
2.881	-0.134
2.882	-0.133
2.883	-0.132
2.884	-0.132
2.885	-0.133
2.886	-0.135
2.887	-0.138
2.888	-0.141
2.889	-0.145
2.89	-0.148
2.891	-0.152
2.892	-0.154
2.893	-0.155
2.894	-0.155
2.895	-0.154
2.896	-0.151
2.897	-0.148
2.898	-0.144
2.899	-0.139
2.9	-0.134
2.901	-0.13
2.902	-0.126
2.903	-0.123
2.904	-0.122
2.905	-0.122
2.906	-0.123
2.907	-0.126
2.908	-0.129
2.909	-0.132
2.91	-0.136
2.911	-0.139
2.912	-0.142
2.913	-0.144
2.914	-0.144
2.915	-0.143
2.916	-0.14
2.917	-0.136
2.918	-0.131
2.919	-0.125
2.92	-0.119
2.921	-0.113
2.922	-0.107
2.923	-0.103
2.924	-0.099
2.925	-0.097
2.926	-0.097
2.927	-0.098
2.928	-0.101
2.929	-0.104
2.93	-0.108
2.931	-0.113
2.932	-0.118
2.933	-0.122
2.934	-0.125
2.935	-0.128
2.936	-0.129
2.937	-0.129
2.938	-0.127
2.939	-0.125
2.94	-0.121
2.941	-0.117
2.942	-0.112
2.943	-0.107
2.944	-0.103
2.945	-0.098
2.946	-0.095
2.947	-0.091
2.948	-0.089
2.949	-0.087
2.95	-0.085
2.951	-0.084
2.952	-0.083
2.953	-0.082
2.954	-0.081
2.955	-0.08
2.956	-0.079
2.957	-0.078
2.958	-0.077
2.959	-0.076
2.96	-0.074
2.961	-0.073
2.962	-0.071
2.963	-0.07
2.964	-0.068
2.965	-0.067
2.966	-0.065
2.967	-0.063
2.968	-0.06
2.969	-0.056
2.97	-0.052
2.971	-0.048
2.972	-0.042
2.973	-0.036
2.974	-0.029
2.975	-0.022
2.976	-0.015
2.977	-0.009
2.978	-0.003
2.979	0.002
2.98	0.006
2.981	0.009
2.982	0.01
2.983	0.01
2.984	0.008
2.985	0.005
2.986	0.002
2.987	-0.002
2.988	-0.005
2.989	-0.008
2.99	-0.009
2.991	-0.01
2.992	-0.008
2.993	-0.006
2.994	-0.001
2.995	0.005
2.996	0.012
2.997	0.019
2.998	0.027
2.999	0.034
3	0.041
3.001	0.046
3.002	0.049
3.003	0.05
3.004	0.05
3.005	0.047
3.006	0.043
3.007	0.038
3.008	0.032
3.009	0.026
3.01	0.02
3.011	0.015
3.012	0.011
3.013	0.009
3.014	0.008
3.015	0.009
3.016	0.012
3.017	0.017
3.018	0.022
3.019	0.027
3.02	0.033
3.021	0.038
3.022	0.042
3.023	0.045
3.024	0.047
3.025	0.047
3.026	0.045
3.027	0.043
3.028	0.04
3.029	0.036
3.03	0.032
3.031	0.029
3.032	0.027
3.033	0.027
3.034	0.027
3.035	0.029
3.036	0.033
3.037	0.037
3.038	0.042
3.039	0.047
3.04	0.052
3.041	0.056
3.042	0.059
3.043	0.061
3.044	0.06
3.045	0.059
3.046	0.055
3.047	0.051
3.048	0.046
3.049	0.04
3.05	0.035
3.051	0.031
3.052	0.028
3.053	0.026
3.054	0.027
3.055	0.03
3.056	0.035
3.057	0.041
3.058	0.049
3.059	0.058
3.06	0.067
3.061	0.075
3.062	0.083
3.063	0.089
3.064	0.094
3.065	0.097
3.066	0.097
3.067	0.096
3.068	0.093
3.069	0.089
3.07	0.083
3.071	0.078
3.072	0.072
3.073	0.067
3.074	0.062
3.075	0.059
3.076	0.057
3.077	0.055
3.078	0.055
3.079	0.055
3.08	0.055
3.081	0.055
3.082	0.054
3.083	0.052
3.084	0.049
3.085	0.045
3.086	0.04
3.087	0.034
3.088	0.027
3.089	0.019
3.09	0.012
3.091	0.006
3.092	0.001
3.093	-0.003
3.094	-0.005
3.095	-0.005
3.096	-0.003
3.097	0.001
3.098	0.006
3.099	0.013
3.1	0.02
3.101	0.027
3.102	0.033
3.103	0.039
3.104	0.043
3.105	0.045
3.106	0.045
3.107	0.043
3.108	0.039
3.109	0.034
3.11	0.028
3.111	0.022
3.112	0.015
3.113	0.009
3.114	0.003
3.115	-0.001
3.116	-0.004
3.117	-0.005
3.118	-0.005
3.119	-0.004
3.12	-0.002
3.121	0
3.122	0.003
3.123	0.005
3.124	0.006
3.125	0.007
3.126	0.007
3.127	0.005
3.128	0.002
3.129	-0.001
3.13	-0.005
3.131	-0.01
3.132	-0.014
3.133	-0.018
3.134	-0.021
3.135	-0.023
3.136	-0.024
3.137	-0.023
3.138	-0.022
3.139	-0.019
3.14	-0.015
3.141	-0.01
3.142	-0.005
3.143	0
3.144	0.005
3.145	0.009
3.146	0.013
3.147	0.016
3.148	0.018
3.149	0.019
3.15	0.019
3.151	0.019
3.152	0.018
3.153	0.018
3.154	0.016
3.155	0.015
3.156	0.014
3.157	0.013
3.158	0.013
3.159	0.012
3.16	0.011
3.161	0.01
3.162	0.008
3.163	0.007
3.164	0.004
3.165	0.002
3.166	-0.001
3.167	-0.003
3.168	-0.006
3.169	-0.009
3.17	-0.011
3.171	-0.013
3.172	-0.014
3.173	-0.015
3.174	-0.014
3.175	-0.013
3.176	-0.012
3.177	-0.01
3.178	-0.007
3.179	-0.005
3.18	-0.003
3.181	-0.001
3.182	0
3.183	0.001
3.184	0.001
3.185	0
3.186	-0.001
3.187	-0.002
3.188	-0.003
3.189	-0.004
3.19	-0.004
3.191	-0.004
3.192	-0.003
3.193	-0.001
3.194	0.002
3.195	0.006
3.196	0.01
3.197	0.014
3.198	0.018
3.199	0.022
3.2	0.024
3.201	0.026
3.202	0.026
3.203	0.025
3.204	0.022
3.205	0.018
3.206	0.014
3.207	0.008
3.208	0.003
3.209	-0.003
3.21	-0.007
3.211	-0.011
3.212	-0.013
3.213	-0.013
3.214	-0.012
3.215	-0.009
3.216	-0.005
3.217	0
3.218	0.006
3.219	0.012
3.22	0.017
3.221	0.021
3.222	0.023
3.223	0.024
3.224	0.023
3.225	0.02
3.226	0.016
3.227	0.01
3.228	0.004
3.229	-0.003
3.23	-0.009
3.231	-0.014
3.232	-0.018
3.233	-0.02
3.234	-0.02
3.235	-0.017
3.236	-0.013
3.237	-0.006
3.238	0.002
3.239	0.011
3.24	0.02
3.241	0.029
3.242	0.037
3.243	0.044
3.244	0.049
3.245	0.053
3.246	0.054
3.247	0.053
3.248	0.051
3.249	0.048
3.25	0.044
3.251	0.039
3.252	0.035
3.253	0.031
3.254	0.028
3.255	0.026
3.256	0.026
3.257	0.026
3.258	0.027
3.259	0.029
3.26	0.031
3.261	0.033
3.262	0.034
3.263	0.035
3.264	0.035
3.265	0.033
3.266	0.031
3.267	0.027
3.268	0.023
3.269	0.019
3.27	0.015
3.271	0.011
3.272	0.009
3.273	0.008
3.274	0.008
3.275	0.01
3.276	0.013
3.277	0.018
3.278	0.024
3.279	0.03
3.28	0.036
3.281	0.041
3.282	0.045
3.283	0.048
3.284	0.049
3.285	0.047
3.286	0.044
3.287	0.039
3.288	0.032
3.289	0.025
3.29	0.017
3.291	0.009
3.292	0.002
3.293	-0.004
3.294	-0.008
3.295	-0.01
3.296	-0.009
3.297	-0.006
3.298	-0.002
3.299	0.004
3.3	0.012
3.301	0.019
3.302	0.027
3.303	0.034
3.304	0.04
3.305	0.045
3.306	0.047
3.307	0.048
3.308	0.046
3.309	0.043
3.31	0.039
3.311	0.034
3.312	0.028
3.313	0.023
3.314	0.018
3.315	0.013
3.316	0.011
3.317	0.009
3.318	0.009
3.319	0.011
3.32	0.013
3.321	0.017
3.322	0.021
3.323	0.025
3.324	0.028
3.325	0.031
3.326	0.033
3.327	0.034
3.328	0.034
3.329	0.032
3.33	0.03
3.331	0.028
3.332	0.024
3.333	0.021
3.334	0.018
3.335	0.016
3.336	0.014
3.337	0.014
3.338	0.014
3.339	0.015
3.34	0.017
3.341	0.02
3.342	0.024
3.343	0.028
3.344	0.031
3.345	0.035
3.346	0.038
3.347	0.041
3.348	0.044
3.349	0.046
3.35	0.047
3.351	0.048
3.352	0.049
3.353	0.049
3.354	0.049
3.355	0.049
3.356	0.048
3.357	0.047
3.358	0.046
3.359	0.044
3.36	0.041
3.361	0.038
3.362	0.035
3.363	0.03
3.364	0.026
3.365	0.02
3.366	0.015
3.367	0.01
3.368	0.004
3.369	0
3.37	-0.004
3.371	-0.007
3.372	-0.008
3.373	-0.008
3.374	-0.007
3.375	-0.004
3.376	0
3.377	0.004
3.378	0.01
3.379	0.015
3.38	0.021
3.381	0.026
3.382	0.03
3.383	0.033
3.384	0.034
3.385	0.035
3.386	0.034
3.387	0.033
3.388	0.031
3.389	0.028
3.39	0.026
3.391	0.024
3.392	0.023
3.393	0.023
3.394	0.024
3.395	0.026
3.396	0.029
3.397	0.033
3.398	0.038
3.399	0.042
3.4	0.047
3.401	0.05
3.402	0.053
3.403	0.054
3.404	0.054
3.405	0.052
3.406	0.048
3.407	0.044
3.408	0.038
3.409	0.031
3.41	0.024
3.411	0.018
3.412	0.012
3.413	0.007
3.414	0.004
3.415	0.003
3.416	0.004
3.417	0.006
3.418	0.01
3.419	0.016
3.42	0.022
3.421	0.028
3.422	0.035
3.423	0.041
3.424	0.046
3.425	0.05
3.426	0.052
3.427	0.053
3.428	0.053
3.429	0.051
3.43	0.048
3.431	0.045
3.432	0.041
3.433	0.037
3.434	0.034
3.435	0.031
3.436	0.028
3.437	0.026
3.438	0.025
3.439	0.025
3.44	0.025
3.441	0.025
3.442	0.025
3.443	0.025
3.444	0.025
3.445	0.024
3.446	0.023
3.447	0.021
3.448	0.019
3.449	0.016
3.45	0.014
3.451	0.011
3.452	0.009
3.453	0.007
3.454	0.006
3.455	0.006
3.456	0.006
3.457	0.006
3.458	0.007
3.459	0.009
3.46	0.01
3.461	0.011
3.462	0.012
3.463	0.012
3.464	0.012
3.465	0.011
3.466	0.009
3.467	0.007
3.468	0.004
3.469	0.002
3.47	0
3.471	-0.001
3.472	-0.002
3.473	-0.002
3.474	0
3.475	0.002
3.476	0.006
3.477	0.01
3.478	0.015
3.479	0.02
3.48	0.025
3.481	0.03
3.482	0.034
3.483	0.036
3.484	0.038
3.485	0.037
3.486	0.036
3.487	0.033
3.488	0.029
3.489	0.024
3.49	0.019
3.491	0.013
3.492	0.008
3.493	0.003
3.494	-0.001
3.495	-0.004
3.496	-0.006
3.497	-0.007
3.498	-0.006
3.499	-0.005
3.5	-0.004
3.501	-0.001
3.502	0.001
3.503	0.003
3.504	0.005
3.505	0.007
3.506	0.008
3.507	0.009
3.508	0.009
3.509	0.01
3.51	0.01
3.511	0.01
3.512	0.011
3.513	0.012
3.514	0.014
3.515	0.016
3.516	0.019
3.517	0.023
3.518	0.026
3.519	0.03
3.52	0.034
3.521	0.037
3.522	0.04
3.523	0.041
3.524	0.042
3.525	0.042
3.526	0.041
3.527	0.039
3.528	0.037
3.529	0.034
3.53	0.03
3.531	0.026
3.532	0.022
3.533	0.018
3.534	0.015
3.535	0.012
3.536	0.009
3.537	0.007
3.538	0.005
3.539	0.003
3.54	0.001
3.541	-0.001
3.542	-0.003
3.543	-0.006
3.544	-0.008
3.545	-0.01
3.546	-0.012
3.547	-0.013
3.548	-0.014
3.549	-0.015
3.55	-0.014
3.551	-0.012
3.552	-0.01
3.553	-0.006
3.554	-0.002
3.555	0.002
3.556	0.007
3.557	0.011
3.558	0.015
3.559	0.018
3.56	0.019
3.561	0.019
3.562	0.017
3.563	0.014
3.564	0.009
3.565	0.003
3.566	-0.004
3.567	-0.011
3.568	-0.018
3.569	-0.024
3.57	-0.029
3.571	-0.032
3.572	-0.033
3.573	-0.031
3.574	-0.028
3.575	-0.022
3.576	-0.014
3.577	-0.004
3.578	0.006
3.579	0.016
3.58	0.027
3.581	0.036
3.582	0.043
3.583	0.049
3.584	0.053
3.585	0.055
3.586	0.055
3.587	0.053
3.588	0.05
3.589	0.046
3.59	0.041
3.591	0.037
3.592	0.034
3.593	0.031
3.594	0.03
3.595	0.029
3.596	0.03
3.597	0.032
3.598	0.035
3.599	0.037
3.6	0.039
3.601	0.041
3.602	0.041
3.603	0.04
3.604	0.037
3.605	0.033
3.606	0.027
3.607	0.021
3.608	0.013
3.609	0.006
3.61	-0.001
3.611	-0.007
3.612	-0.011
3.613	-0.013
3.614	-0.013
3.615	-0.011
3.616	-0.006
3.617	0
3.618	0.008
3.619	0.016
3.62	0.025
3.621	0.034
3.622	0.041
3.623	0.046
3.624	0.049
3.625	0.049
3.626	0.047
3.627	0.042
3.628	0.035
3.629	0.027
3.63	0.017
3.631	0.008
3.632	-0.002
3.633	-0.01
3.634	-0.017
3.635	-0.022
3.636	-0.025
3.637	-0.025
3.638	-0.023
3.639	-0.019
3.64	-0.013
3.641	-0.006
3.642	0.001
3.643	0.009
3.644	0.015
3.645	0.021
3.646	0.026
3.647	0.029
3.648	0.03
3.649	0.03
3.65	0.029
3.651	0.027
3.652	0.024
3.653	0.021
3.654	0.019
3.655	0.017
3.656	0.015
3.657	0.014
3.658	0.014
3.659	0.015
3.66	0.016
3.661	0.017
3.662	0.019
3.663	0.019
3.664	0.019
3.665	0.018
3.666	0.016
3.667	0.013
3.668	0.009
3.669	0.005
3.67	-0.001
3.671	-0.006
3.672	-0.011
3.673	-0.016
3.674	-0.019
3.675	-0.021
3.676	-0.022
3.677	-0.022
3.678	-0.019
3.679	-0.016
3.68	-0.011
3.681	-0.005
3.682	0.001
3.683	0.007
3.684	0.013
3.685	0.019
3.686	0.023
3.687	0.027
3.688	0.029
3.689	0.031
3.69	0.031
3.691	0.03
3.692	0.028
3.693	0.026
3.694	0.023
3.695	0.021
3.696	0.018
3.697	0.016
3.698	0.014
3.699	0.012
3.7	0.011
3.701	0.01
3.702	0.01
3.703	0.009
3.704	0.009
3.705	0.009
3.706	0.008
3.707	0.008
3.708	0.008
3.709	0.008
3.71	0.009
3.711	0.01
3.712	0.011
3.713	0.013
3.714	0.016
3.715	0.019
3.716	0.023
3.717	0.028
3.718	0.032
3.719	0.037
3.72	0.042
3.721	0.046
3.722	0.05
3.723	0.053
3.724	0.054
3.725	0.055
3.726	0.055
3.727	0.054
3.728	0.052
3.729	0.049
3.73	0.046
3.731	0.042
3.732	0.038
3.733	0.034
3.734	0.031
3.735	0.028
3.736	0.025
3.737	0.024
3.738	0.023
3.739	0.023
3.74	0.023
3.741	0.024
3.742	0.026
3.743	0.028
3.744	0.031
3.745	0.034
3.746	0.037
3.747	0.04
3.748	0.044
3.749	0.047
3.75	0.051
3.751	0.055
3.752	0.058
3.753	0.061
3.754	0.064
3.755	0.067
3.756	0.068
3.757	0.069
3.758	0.068
3.759	0.066
3.76	0.063
3.761	0.058
3.762	0.051
3.763	0.043
3.764	0.033
3.765	0.022
3.766	0.009
3.767	-0.004
3.768	-0.019
3.769	-0.034
3.77	-0.05
3.771	-0.066
3.772	-0.082
3.773	-0.099
3.774	-0.115
3.775	-0.132
3.776	-0.148
3.777	-0.165
3.778	-0.182
3.779	-0.2
3.78	-0.217
3.781	-0.234
3.782	-0.25
3.783	-0.265
3.784	-0.279
3.785	-0.29
3.786	-0.299
3.787	-0.304
3.788	-0.305
3.789	-0.3
3.79	-0.29
3.791	-0.275
3.792	-0.254
3.793	-0.225
3.794	-0.191
3.795	-0.152
3.796	-0.107
3.797	-0.058
3.798	-0.005
3.799	0.051
3.8	0.108
3.801	0.167
3.802	0.225
3.803	0.283
3.804	0.339
3.805	0.393
3.806	0.443
3.807	0.491
3.808	0.534
3.809	0.573
3.81	0.607
3.811	0.637
3.812	0.662
3.813	0.681
3.814	0.694
3.815	0.701
3.816	0.703
3.817	0.699
3.818	0.689
3.819	0.672
3.82	0.65
3.821	0.623
3.822	0.592
3.823	0.557
3.824	0.519
3.825	0.479
3.826	0.439
3.827	0.4
3.828	0.362
3.829	0.326
3.83	0.294
3.831	0.266
3.832	0.242
3.833	0.223
3.834	0.208
3.835	0.196
3.836	0.188
3.837	0.182
3.838	0.177
3.839	0.172
3.84	0.167
3.841	0.161
3.842	0.153
3.843	0.142
3.844	0.129
3.845	0.114
3.846	0.096
3.847	0.077
3.848	0.058
3.849	0.038
3.85	0.02
3.851	0.003
3.852	-0.011
3.853	-0.023
3.854	-0.031
3.855	-0.035
3.856	-0.036
3.857	-0.035
3.858	-0.032
3.859	-0.026
3.86	-0.02
3.861	-0.014
3.862	-0.009
3.863	-0.005
3.864	-0.002
3.865	-0.002
3.866	-0.003
3.867	-0.006
3.868	-0.011
3.869	-0.016
3.87	-0.022
3.871	-0.028
3.872	-0.032
3.873	-0.036
3.874	-0.038
3.875	-0.038
3.876	-0.037
3.877	-0.034
3.878	-0.031
3.879	-0.026
3.88	-0.022
3.881	-0.018
3.882	-0.015
3.883	-0.014
3.884	-0.014
3.885	-0.016
3.886	-0.02
3.887	-0.025
3.888	-0.032
3.889	-0.039
3.89	-0.046
3.891	-0.052
3.892	-0.057
3.893	-0.06
3.894	-0.061
3.895	-0.06
3.896	-0.057
3.897	-0.053
3.898	-0.047
3.899	-0.04
3.9	-0.033
3.901	-0.027
3.902	-0.021
3.903	-0.018
3.904	-0.017
3.905	-0.018
3.906	-0.022
3.907	-0.028
3.908	-0.035
3.909	-0.044
3.91	-0.053
3.911	-0.063
3.912	-0.071
3.913	-0.078
3.914	-0.082
3.915	-0.084
3.916	-0.083
3.917	-0.08
3.918	-0.074
3.919	-0.067
3.92	-0.058
3.921	-0.048
3.922	-0.039
3.923	-0.031
3.924	-0.024
3.925	-0.02
3.926	-0.018
3.927	-0.019
3.928	-0.022
3.929	-0.028
3.93	-0.035
3.931	-0.044
3.932	-0.053
3.933	-0.063
3.934	-0.071
3.935	-0.079
3.936	-0.084
3.937	-0.088
3.938	-0.089
3.939	-0.088
3.94	-0.086
3.941	-0.082
3.942	-0.076
3.943	-0.071
3.944	-0.065
3.945	-0.06
3.946	-0.056
3.947	-0.052
3.948	-0.051
3.949	-0.051
3.95	-0.052
3.951	-0.055
3.952	-0.058
3.953	-0.063
3.954	-0.067
3.955	-0.072
3.956	-0.076
3.957	-0.08
3.958	-0.084
3.959	-0.086
3.96	-0.088
3.961	-0.089
3.962	-0.09
3.963	-0.09
3.964	-0.09
3.965	-0.089
3.966	-0.089
3.967	-0.089
3.968	-0.089
3.969	-0.089
3.97	-0.089
3.971	-0.089
3.972	-0.089
3.973	-0.089
3.974	-0.089
3.975	-0.089
3.976	-0.088
3.977	-0.088
3.978	-0.088
3.979	-0.088
3.98	-0.089
3.981	-0.09
3.982	-0.093
3.983	-0.096
3.984	-0.1
3.985	-0.104
3.986	-0.11
3.987	-0.115
3.988	-0.121
3.989	-0.126
3.99	-0.13
3.991	-0.133
3.992	-0.135
3.993	-0.136
3.994	-0.135
3.995	-0.132
3.996	-0.128
3.997	-0.123
3.998	-0.118
3.999	-0.112
4	-0.106
4.001	-0.102
4.002	-0.098
4.003	-0.096
4.004	-0.096
4.005	-0.098
4.006	-0.102
4.007	-0.107
4.008	-0.114
4.009	-0.122
4.01	-0.13
4.011	-0.138
4.012	-0.145
4.013	-0.151
4.014	-0.156
4.015	-0.158
4.016	-0.158
4.017	-0.156
4.018	-0.152
4.019	-0.146
4.02	-0.139
4.021	-0.131
4.022	-0.122
4.023	-0.113
4.024	-0.105
4.025	-0.097
4.026	-0.091
4.027	-0.085
4.028	-0.081
4.029	-0.078
4.03	-0.077
4.031	-0.076
4.032	-0.076
4.033	-0.076
4.034	-0.077
4.035	-0.078
4.036	-0.079
4.037	-0.08
4.038	-0.082
4.039	-0.083
4.04	-0.085
4.041	-0.088
4.042	-0.091
4.043	-0.095
4.044	-0.099
4.045	-0.104
4.046	-0.11
4.047	-0.115
4.048	-0.12
4.049	-0.125
4.05	-0.128
4.051	-0.13
4.052	-0.13
4.053	-0.128
4.054	-0.123
4.055	-0.117
4.056	-0.108
4.057	-0.098
4.058	-0.086
4.059	-0.074
4.06	-0.061
4.061	-0.05
4.062	-0.039
4.063	-0.03
4.064	-0.023
4.065	-0.018
4.066	-0.016
4.067	-0.016
4.068	-0.019
4.069	-0.023
4.07	-0.029
4.071	-0.036
4.072	-0.043
4.073	-0.049
4.074	-0.054
4.075	-0.058
4.076	-0.06
4.077	-0.06
4.078	-0.059
4.079	-0.055
4.08	-0.05
4.081	-0.044
4.082	-0.037
4.083	-0.029
4.084	-0.022
4.085	-0.016
4.086	-0.01
4.087	-0.006
4.088	-0.003
4.089	-0.001
4.09	0
4.091	0
4.092	-0.001
4.093	-0.002
4.094	-0.003
4.095	-0.004
4.096	-0.004
4.097	-0.004
4.098	-0.003
4.099	-0.002
4.1	0
4.101	0.002
4.102	0.003
4.103	0.005
4.104	0.006
4.105	0.007
4.106	0.007
4.107	0.006
4.108	0.005
4.109	0.003
4.11	0.001
4.111	-0.001
4.112	-0.003
4.113	-0.004
4.114	-0.005
4.115	-0.005
4.116	-0.004
4.117	-0.001
4.118	0.002
4.119	0.007
4.12	0.012
4.121	0.017
4.122	0.022
4.123	0.027
4.124	0.032
4.125	0.035
4.126	0.038
4.127	0.039
4.128	0.039
4.129	0.037
4.13	0.035
4.131	0.032
4.132	0.027
4.133	0.023
4.134	0.019
4.135	0.014
4.136	0.011
4.137	0.008
4.138	0.006
4.139	0.005
4.14	0.006
4.141	0.007
4.142	0.01
4.143	0.013
4.144	0.018
4.145	0.023
4.146	0.029
4.147	0.035
4.148	0.042
4.149	0.048
4.15	0.055
4.151	0.061
4.152	0.066
4.153	0.072
4.154	0.076
4.155	0.079
4.156	0.081
4.157	0.082
4.158	0.082
4.159	0.081
4.16	0.078
4.161	0.074
4.162	0.069
4.163	0.064
4.164	0.058
4.165	0.051
4.166	0.045
4.167	0.04
4.168	0.035
4.169	0.031
4.17	0.029
4.171	0.028
4.172	0.029
4.173	0.031
4.174	0.034
4.175	0.039
4.176	0.044
4.177	0.049
4.178	0.054
4.179	0.059
4.18	0.062
4.181	0.065
4.182	0.065
4.183	0.064
4.184	0.062
4.185	0.058
4.186	0.053
4.187	0.047
4.188	0.041
4.189	0.035
4.19	0.029
4.191	0.024
4.192	0.02
4.193	0.016
4.194	0.014
4.195	0.013
4.196	0.013
4.197	0.014
4.198	0.014
4.199	0.015
4.2	0.015
4.201	0.015
4.202	0.013
4.203	0.011
4.204	0.008
4.205	0.005
4.206	0.001
4.207	-0.003
4.208	-0.006
4.209	-0.008
4.21	-0.009
4.211	-0.009
4.212	-0.006
4.213	-0.001
4.214	0.005
4.215	0.013
4.216	0.022
4.217	0.031
4.218	0.04
4.219	0.048
4.22	0.054
4.221	0.059
4.222	0.061
4.223	0.06
4.224	0.057
4.225	0.05
4.226	0.042
4.227	0.032
4.228	0.022
4.229	0.011
4.23	0.001
4.231	-0.008
4.232	-0.014
4.233	-0.018
4.234	-0.019
4.235	-0.017
4.236	-0.012
4.237	-0.005
4.238	0.004
4.239	0.014
4.24	0.023
4.241	0.032
4.242	0.04
4.243	0.045
4.244	0.048
4.245	0.048
4.246	0.045
4.247	0.039
4.248	0.031
4.249	0.022
4.25	0.012
4.251	0.002
4.252	-0.007
4.253	-0.015
4.254	-0.02
4.255	-0.023
4.256	-0.023
4.257	-0.021
4.258	-0.016
4.259	-0.009
4.26	-0.002
4.261	0.006
4.262	0.014
4.263	0.021
4.264	0.026
4.265	0.029
4.266	0.03
4.267	0.028
4.268	0.024
4.269	0.019
4.27	0.011
4.271	0.004
4.272	-0.004
4.273	-0.011
4.274	-0.018
4.275	-0.022
4.276	-0.025
4.277	-0.025
4.278	-0.024
4.279	-0.021
4.28	-0.017
4.281	-0.012
4.282	-0.007
4.283	-0.002
4.284	0.002
4.285	0.004
4.286	0.005
4.287	0.004
4.288	0.001
4.289	-0.003
4.29	-0.008
4.291	-0.013
4.292	-0.019
4.293	-0.024
4.294	-0.028
4.295	-0.03
4.296	-0.031
4.297	-0.029
4.298	-0.026
4.299	-0.021
4.3	-0.014
4.301	-0.006
4.302	0.002
4.303	0.01
4.304	0.017
4.305	0.023
4.306	0.028
4.307	0.031
4.308	0.032
4.309	0.03
4.31	0.027
4.311	0.023
4.312	0.018
4.313	0.011
4.314	0.005
4.315	-0.001
4.316	-0.006
4.317	-0.011
4.318	-0.014
4.319	-0.016
4.32	-0.017
4.321	-0.016
4.322	-0.015
4.323	-0.013
4.324	-0.01
4.325	-0.007
4.326	-0.004
4.327	-0.001
4.328	0.002
4.329	0.005
4.33	0.008
4.331	0.011
4.332	0.013
4.333	0.016
4.334	0.019
4.335	0.022
4.336	0.025
4.337	0.028
4.338	0.031
4.339	0.034
4.34	0.036
4.341	0.038
4.342	0.038
4.343	0.038
4.344	0.036
4.345	0.033
4.346	0.028
4.347	0.022
4.348	0.016
4.349	0.008
4.35	0.001
4.351	-0.007
4.352	-0.014
4.353	-0.02
4.354	-0.025
4.355	-0.029
4.356	-0.031
4.357	-0.031
4.358	-0.031
4.359	-0.028
4.36	-0.025
4.361	-0.021
4.362	-0.017
4.363	-0.013
4.364	-0.009
4.365	-0.005
4.366	-0.002
4.367	0.001
4.368	0.003
4.369	0.004
4.37	0.005
4.371	0.006
4.372	0.007
4.373	0.009
4.374	0.01
4.375	0.012
4.376	0.015
4.377	0.017
4.378	0.02
4.379	0.023
4.38	0.025
4.381	0.026
4.382	0.027
4.383	0.026
4.384	0.024
4.385	0.021
4.386	0.016
4.387	0.01
4.388	0.004
4.389	-0.004
4.39	-0.011
4.391	-0.018
4.392	-0.025
4.393	-0.03
4.394	-0.034
4.395	-0.035
4.396	-0.036
4.397	-0.034
4.398	-0.03
4.399	-0.025
4.4	-0.019
4.401	-0.012
4.402	-0.006
4.403	0.001
4.404	0.007
4.405	0.012
4.406	0.016
4.407	0.018
4.408	0.019
4.409	0.019
4.41	0.017
4.411	0.015
4.412	0.012
4.413	0.009
4.414	0.006
4.415	0.003
4.416	0.001
4.417	0
4.418	-0.001
4.419	0
4.42	0.001
4.421	0.003
4.422	0.006
4.423	0.009
4.424	0.012
4.425	0.015
4.426	0.018
4.427	0.02
4.428	0.022
4.429	0.024
4.43	0.025
4.431	0.026
4.432	0.027
4.433	0.027
4.434	0.028
4.435	0.028
4.436	0.027
4.437	0.027
4.438	0.026
4.439	0.024
4.44	0.022
4.441	0.019
4.442	0.016
4.443	0.012
4.444	0.008
4.445	0.003
4.446	-0.002
4.447	-0.007
4.448	-0.011
4.449	-0.014
4.45	-0.017
4.451	-0.017
4.452	-0.017
4.453	-0.014
4.454	-0.01
4.455	-0.005
4.456	0.002
4.457	0.009
4.458	0.017
4.459	0.025
4.46	0.033
4.461	0.039
4.462	0.045
4.463	0.048
4.464	0.05
4.465	0.05
4.466	0.048
4.467	0.044
4.468	0.039
4.469	0.033
4.47	0.027
4.471	0.021
4.472	0.015
4.473	0.011
4.474	0.007
4.475	0.005
4.476	0.005
4.477	0.006
4.478	0.008
4.479	0.011
4.48	0.014
4.481	0.018
4.482	0.021
4.483	0.024
4.484	0.027
4.485	0.028
4.486	0.028
4.487	0.028
4.488	0.026
4.489	0.025
4.49	0.023
4.491	0.021
4.492	0.019
4.493	0.019
4.494	0.019
4.495	0.021
4.496	0.023
4.497	0.026
4.498	0.03
4.499	0.034
4.5	0.037
4.501	0.04
4.502	0.042
4.503	0.043
4.504	0.043
4.505	0.041
4.506	0.037
4.507	0.032
4.508	0.026
4.509	0.019
4.51	0.013
4.511	0.006
4.512	0.001
4.513	-0.003
4.514	-0.006
4.515	-0.006
4.516	-0.005
4.517	-0.002
4.518	0.003
4.519	0.009
4.52	0.017
4.521	0.024
4.522	0.031
4.523	0.037
4.524	0.042
4.525	0.046
4.526	0.048
4.527	0.047
4.528	0.045
4.529	0.042
4.53	0.037
4.531	0.031
4.532	0.025
4.533	0.019
4.534	0.013
4.535	0.008
4.536	0.004
4.537	0.001
4.538	0
4.539	0
4.54	0.001
4.541	0.003
4.542	0.006
4.543	0.009
4.544	0.013
4.545	0.016
4.546	0.019
4.547	0.022
4.548	0.025
4.549	0.027
4.55	0.028
4.551	0.03
4.552	0.031
4.553	0.033
4.554	0.035
4.555	0.036
4.556	0.038
4.557	0.041
4.558	0.043
4.559	0.045
4.56	0.046
4.561	0.047
4.562	0.046
4.563	0.045
4.564	0.043
4.565	0.039
4.566	0.034
4.567	0.028
4.568	0.022
4.569	0.015
4.57	0.008
4.571	0.002
4.572	-0.003
4.573	-0.008
4.574	-0.011
4.575	-0.012
4.576	-0.012
4.577	-0.01
4.578	-0.008
4.579	-0.004
4.58	0.001
4.581	0.005
4.582	0.01
4.583	0.014
4.584	0.017
4.585	0.019
4.586	0.02
4.587	0.02
4.588	0.019
4.589	0.017
4.59	0.014
4.591	0.011
4.592	0.008
4.593	0.005
4.594	0.003
4.595	0.002
4.596	0.002
4.597	0.003
4.598	0.005
4.599	0.008
4.6	0.012
4.601	0.015
4.602	0.019
4.603	0.022
4.604	0.024
4.605	0.025
4.606	0.026
4.607	0.025
4.608	0.023
4.609	0.02
4.61	0.017
4.611	0.013
4.612	0.009
4.613	0.005
4.614	0.001
4.615	-0.002
4.616	-0.004
4.617	-0.005
4.618	-0.005
4.619	-0.005
4.62	-0.004
4.621	-0.002
4.622	0
4.623	0.003
4.624	0.005
4.625	0.008
4.626	0.01
4.627	0.012
4.628	0.014
4.629	0.016
4.63	0.017
4.631	0.019
4.632	0.02
4.633	0.022
4.634	0.023
4.635	0.024
4.636	0.026
4.637	0.027
4.638	0.028
4.639	0.029
4.64	0.028
4.641	0.028
4.642	0.026
4.643	0.024
4.644	0.02
4.645	0.017
4.646	0.013
4.647	0.008
4.648	0.004
4.649	0
4.65	-0.003
4.651	-0.005
4.652	-0.006
4.653	-0.005
4.654	-0.004
4.655	-0.001
4.656	0.002
4.657	0.007
4.658	0.011
4.659	0.015
4.66	0.019
4.661	0.021
4.662	0.022
4.663	0.022
4.664	0.021
4.665	0.018
4.666	0.014
4.667	0.008
4.668	0.003
4.669	-0.003
4.67	-0.008
4.671	-0.012
4.672	-0.015
4.673	-0.016
4.674	-0.016
4.675	-0.014
4.676	-0.01
4.677	-0.005
4.678	0.001
4.679	0.008
4.68	0.014
4.681	0.02
4.682	0.025
4.683	0.029
4.684	0.03
4.685	0.03
4.686	0.028
4.687	0.025
4.688	0.02
4.689	0.015
4.69	0.009
4.691	0.004
4.692	-0.001
4.693	-0.004
4.694	-0.006
4.695	-0.006
4.696	-0.004
4.697	-0.001
4.698	0.003
4.699	0.008
4.7	0.014
4.701	0.019
4.702	0.023
4.703	0.027
4.704	0.028
4.705	0.028
4.706	0.026
4.707	0.022
4.708	0.016
4.709	0.01
4.71	0.002
4.711	-0.005
4.712	-0.012
4.713	-0.019
4.714	-0.023
4.715	-0.027
4.716	-0.028
4.717	-0.028
4.718	-0.026
4.719	-0.022
4.72	-0.018
4.721	-0.012
4.722	-0.007
4.723	-0.002
4.724	0.003
4.725	0.007
4.726	0.009
4.727	0.011
4.728	0.011
4.729	0.011
4.73	0.009
4.731	0.008
4.732	0.006
4.733	0.004
4.734	0.003
4.735	0.003
4.736	0.003
4.737	0.004
4.738	0.006
4.739	0.008
4.74	0.009
4.741	0.011
4.742	0.011
4.743	0.011
4.744	0.01
4.745	0.007
4.746	0.003
4.747	-0.002
4.748	-0.007
4.749	-0.013
4.75	-0.018
4.751	-0.023
4.752	-0.027
4.753	-0.03
4.754	-0.03
4.755	-0.029
4.756	-0.026
4.757	-0.021
4.758	-0.015
4.759	-0.007
4.76	0.001
4.761	0.01
4.762	0.017
4.763	0.024
4.764	0.029
4.765	0.032
4.766	0.033
4.767	0.032
4.768	0.029
4.769	0.024
4.77	0.018
4.771	0.011
4.772	0.005
4.773	-0.002
4.774	-0.008
4.775	-0.012
4.776	-0.015
4.777	-0.016
4.778	-0.016
4.779	-0.014
4.78	-0.011
4.781	-0.007
4.782	-0.003
4.783	0.002
4.784	0.006
4.785	0.009
4.786	0.011
4.787	0.012
4.788	0.012
4.789	0.011
4.79	0.009
4.791	0.007
4.792	0.004
4.793	0.002
4.794	-0.001
4.795	-0.002
4.796	-0.003
4.797	-0.003
4.798	-0.003
4.799	-0.001
4.8	0
4.801	0.001
4.802	0.002
4.803	0.002
4.804	0.002
4.805	0
4.806	-0.002
4.807	-0.005
4.808	-0.009
4.809	-0.013
4.81	-0.018
4.811	-0.022
4.812	-0.025
4.813	-0.028
4.814	-0.029
4.815	-0.029
4.816	-0.027
4.817	-0.023
4.818	-0.019
4.819	-0.013
4.82	-0.007
4.821	-0.001
4.822	0.005
4.823	0.009
4.824	0.012
4.825	0.014
4.826	0.014
4.827	0.012
4.828	0.009
4.829	0.004
4.83	-0.001
4.831	-0.007
4.832	-0.012
4.833	-0.017
4.834	-0.021
4.835	-0.023
4.836	-0.023
4.837	-0.022
4.838	-0.02
4.839	-0.015
4.84	-0.01
4.841	-0.005
4.842	0.001
4.843	0.005
4.844	0.009
4.845	0.012
4.846	0.012
4.847	0.011
4.848	0.007
4.849	0.002
4.85	-0.004
4.851	-0.012
4.852	-0.02
4.853	-0.028
4.854	-0.035
4.855	-0.041
4.856	-0.045
4.857	-0.048
4.858	-0.048
4.859	-0.047
4.86	-0.044
4.861	-0.039
4.862	-0.033
4.863	-0.026
4.864	-0.02
4.865	-0.013
4.866	-0.007
4.867	-0.003
4.868	0.001
4.869	0.002
4.87	0.003
4.871	0.001
4.872	-0.001
4.873	-0.005
4.874	-0.009
4.875	-0.013
4.876	-0.018
4.877	-0.023
4.878	-0.027
4.879	-0.03
4.88	-0.033
4.881	-0.036
4.882	-0.037
4.883	-0.038
4.884	-0.039
4.885	-0.039
4.886	-0.038
4.887	-0.037
4.888	-0.036
4.889	-0.035
4.89	-0.033
4.891	-0.03
4.892	-0.027
4.893	-0.023
4.894	-0.019
4.895	-0.014
4.896	-0.008
4.897	-0.002
4.898	0.004
4.899	0.011
4.9	0.017
4.901	0.023
4.902	0.028
4.903	0.033
4.904	0.036
4.905	0.038
4.906	0.039
4.907	0.039
4.908	0.038
4.909	0.036
4.91	0.033
4.911	0.03
4.912	0.027
4.913	0.024
4.914	0.021
4.915	0.019
4.916	0.018
4.917	0.018
4.918	0.018
4.919	0.019
4.92	0.021
4.921	0.023
4.922	0.025
4.923	0.027
4.924	0.029
4.925	0.03
4.926	0.031
4.927	0.032
4.928	0.033
4.929	0.033
4.93	0.033
4.931	0.033
4.932	0.033
4.933	0.033
4.934	0.034
4.935	0.035
4.936	0.036
4.937	0.036
4.938	0.037
4.939	0.038
4.94	0.038
4.941	0.037
4.942	0.036
4.943	0.033
4.944	0.03
4.945	0.026
4.946	0.021
4.947	0.016
4.948	0.011
4.949	0.006
4.95	0.002
4.951	-0.001
4.952	-0.003
4.953	-0.003
4.954	-0.001
4.955	0.002
4.956	0.007
4.957	0.013
4.958	0.019
4.959	0.027
4.96	0.034
4.961	0.04
4.962	0.046
4.963	0.049
4.964	0.051
4.965	0.051
4.966	0.048
4.967	0.043
4.968	0.036
4.969	0.027
4.97	0.017
4.971	0.005
4.972	-0.008
4.973	-0.022
4.974	-0.036
4.975	-0.05
4.976	-0.064
4.977	-0.079
4.978	-0.094
4.979	-0.109
4.98	-0.125
4.981	-0.142
4.982	-0.159
4.983	-0.177
4.984	-0.195
4.985	-0.214
4.986	-0.233
4.987	-0.251
4.988	-0.268
4.989	-0.283
4.99	-0.295
4.991	-0.304
4.992	-0.308
4.993	-0.307
4.994	-0.301
4.995	-0.289
4.996	-0.271
4.997	-0.248
4.998	-0.218
4.999	-0.183
5	-0.144
5.001	-0.102
5.002	-0.056
5.003	-0.007
5.004	0.043
5.005	0.094
5.006	0.145
5.007	0.196
5.008	0.247
5.009	0.297
5.01	0.345
5.011	0.393
5.012	0.439
5.013	0.483
5.014	0.524
5.015	0.563
5.016	0.599
5.017	0.631
5.018	0.659
5.019	0.682
5.02	0.699
5.021	0.71
5.022	0.715
5.023	0.713
5.024	0.703
5.025	0.686
5.026	0.663
5.027	0.634
5.028	0.6
5.029	0.562
5.03	0.52
5.031	0.478
5.032	0.435
5.033	0.393
5.034	0.352
5.035	0.315
5.036	0.282
5.037	0.252
5.038	0.226
5.039	0.205
5.04	0.187
5.041	0.172
5.042	0.16
5.043	0.149
5.044	0.14
5.045	0.131
5.046	0.121
5.047	0.111
5.048	0.099
5.049	0.088
5.05	0.075
5.051	0.061
5.052	0.048
5.053	0.034
5.054	0.022
5.055	0.01
5.056	0.001
5.057	-0.007
5.058	-0.014
5.059	-0.018
5.06	-0.02
5.061	-0.02
5.062	-0.02
5.063	-0.019
5.064	-0.018
5.065	-0.017
5.066	-0.016
5.067	-0.017
5.068	-0.018
5.069	-0.021
5.07	-0.025
5.071	-0.03
5.072	-0.035
5.073	-0.041
5.074	-0.046
5.075	-0.051
5.076	-0.056
5.077	-0.059
5.078	-0.061
5.079	-0.061
5.08	-0.06
5.081	-0.058
5.082	-0.055
5.083	-0.051
5.084	-0.047
5.085	-0.042
5.086	-0.038
5.087	-0.034
5.088	-0.031
5.089	-0.029
5.09	-0.027
5.091	-0.026
5.092	-0.027
5.093	-0.028
5.094	-0.029
5.095	-0.032
5.096	-0.034
5.097	-0.038
5.098	-0.041
5.099	-0.045
5.1	-0.049
5.101	-0.053
5.102	-0.057
5.103	-0.062
5.104	-0.067
5.105	-0.072
5.106	-0.076
5.107	-0.081
5.108	-0.085
5.109	-0.089
5.11	-0.092
5.111	-0.094
5.112	-0.096
5.113	-0.095
5.114	-0.094
5.115	-0.091
5.116	-0.088
5.117	-0.083
5.118	-0.077
5.119	-0.071
5.12	-0.065
5.121	-0.06
5.122	-0.054
5.123	-0.05
5.124	-0.046
5.125	-0.044
5.126	-0.043
5.127	-0.043
5.128	-0.044
5.129	-0.045
5.13	-0.047
5.131	-0.049
5.132	-0.051
5.133	-0.053
5.134	-0.054
5.135	-0.055
5.136	-0.055
5.137	-0.054
5.138	-0.053
5.139	-0.052
5.14	-0.051
5.141	-0.051
5.142	-0.051
5.143	-0.052
5.144	-0.054
5.145	-0.057
5.146	-0.061
5.147	-0.066
5.148	-0.071
5.149	-0.077
5.15	-0.083
5.151	-0.089
5.152	-0.094
5.153	-0.098
5.154	-0.1
5.155	-0.101
5.156	-0.101
5.157	-0.099
5.158	-0.096
5.159	-0.093
5.16	-0.088
5.161	-0.084
5.162	-0.08
5.163	-0.076
5.164	-0.074
5.165	-0.072
5.166	-0.071
5.167	-0.072
5.168	-0.074
5.169	-0.076
5.17	-0.079
5.171	-0.081
5.172	-0.084
5.173	-0.086
5.174	-0.088
5.175	-0.089
5.176	-0.089
5.177	-0.088
5.178	-0.087
5.179	-0.085
5.18	-0.084
5.181	-0.082
5.182	-0.082
5.183	-0.082
5.184	-0.084
5.185	-0.087
5.186	-0.09
5.187	-0.095
5.188	-0.101
5.189	-0.107
5.19	-0.113
5.191	-0.119
5.192	-0.124
5.193	-0.128
5.194	-0.131
5.195	-0.132
5.196	-0.131
5.197	-0.129
5.198	-0.126
5.199	-0.122
5.2	-0.118
5.201	-0.114
5.202	-0.11
5.203	-0.108
5.204	-0.107
5.205	-0.107
5.206	-0.109
5.207	-0.113
5.208	-0.118
5.209	-0.125
5.21	-0.132
5.211	-0.139
5.212	-0.146
5.213	-0.152
5.214	-0.157
5.215	-0.161
5.216	-0.162
5.217	-0.162
5.218	-0.16
5.219	-0.156
5.22	-0.151
5.221	-0.145
5.222	-0.138
5.223	-0.132
5.224	-0.125
5.225	-0.119
5.226	-0.114
5.227	-0.111
5.228	-0.108
5.229	-0.106
5.23	-0.105
5.231	-0.105
5.232	-0.106
5.233	-0.107
5.234	-0.107
5.235	-0.108
5.236	-0.108
5.237	-0.109
5.238	-0.108
5.239	-0.108
5.24	-0.108
5.241	-0.108
5.242	-0.108
5.243	-0.108
5.244	-0.109
5.245	-0.11
5.246	-0.112
5.247	-0.113
5.248	-0.115
5.249	-0.116
5.25	-0.117
5.251	-0.117
5.252	-0.115
5.253	-0.113
5.254	-0.108
5.255	-0.102
5.256	-0.095
5.257	-0.087
5.258	-0.079
5.259	-0.07
5.26	-0.062
5.261	-0.054
5.262	-0.049
5.263	-0.045
5.264	-0.043
5.265	-0.044
5.266	-0.046
5.267	-0.051
5.268	-0.058
5.269	-0.066
5.27	-0.075
5.271	-0.084
5.272	-0.092
5.273	-0.099
5.274	-0.105
5.275	-0.108
5.276	-0.109
5.277	-0.107
5.278	-0.103
5.279	-0.097
5.28	-0.089
5.281	-0.08
5.282	-0.07
5.283	-0.06
5.284	-0.051
5.285	-0.043
5.286	-0.036
5.287	-0.03
5.288	-0.026
5.289	-0.023
5.29	-0.022
5.291	-0.022
5.292	-0.023
5.293	-0.024
5.294	-0.026
5.295	-0.027
5.296	-0.028
5.297	-0.029
5.298	-0.029
5.299	-0.028
5.3	-0.027
5.301	-0.026
5.302	-0.025
5.303	-0.024
5.304	-0.024
5.305	-0.024
5.306	-0.024
5.307	-0.024
5.308	-0.025
5.309	-0.025
5.31	-0.025
5.311	-0.025
5.312	-0.023
5.313	-0.021
5.314	-0.017
5.315	-0.012
5.316	-0.005
5.317	0.002
5.318	0.01
5.319	0.019
5.32	0.027
5.321	0.035
5.322	0.042
5.323	0.047
5.324	0.051
5.325	0.052
5.326	0.052
5.327	0.05
5.328	0.046
5.329	0.041
5.33	0.035
5.331	0.029
5.332	0.023
5.333	0.017
5.334	0.013
5.335	0.01
5.336	0.009
5.337	0.009
5.338	0.011
5.339	0.014
5.34	0.017
5.341	0.021
5.342	0.025
5.343	0.028
5.344	0.029
5.345	0.03
5.346	0.029
5.347	0.026
5.348	0.022
5.349	0.017
5.35	0.012
5.351	0.006
5.352	0
5.353	-0.005
5.354	-0.009
5.355	-0.011
5.356	-0.011
5.357	-0.01
5.358	-0.006
5.359	-0.001
5.36	0.006
5.361	0.013
5.362	0.021
5.363	0.029
5.364	0.037
5.365	0.043
5.366	0.047
5.367	0.051
5.368	0.052
5.369	0.051
5.37	0.049
5.371	0.046
5.372	0.042
5.373	0.037
5.374	0.033
5.375	0.028
5.376	0.025
5.377	0.023
5.378	0.021
5.379	0.021
5.38	0.022
5.381	0.025
5.382	0.028
5.383	0.031
5.384	0.036
5.385	0.04
5.386	0.044
5.387	0.048
5.388	0.051
5.389	0.054
5.39	0.057
5.391	0.059
5.392	0.06
5.393	0.062
5.394	0.063
5.395	0.063
5.396	0.064
5.397	0.064
5.398	0.064
5.399	0.064
5.4	0.062
5.401	0.06
5.402	0.057
5.403	0.054
5.404	0.049
5.405	0.043
5.406	0.037
5.407	0.03
5.408	0.024
5.409	0.017
5.41	0.012
5.411	0.007
5.412	0.004
5.413	0.002
5.414	0.003
5.415	0.005
5.416	0.009
5.417	0.015
5.418	0.022
5.419	0.029
5.42	0.037
5.421	0.045
5.422	0.052
5.423	0.057
5.424	0.061
5.425	0.062
5.426	0.061
5.427	0.059
5.428	0.054
5.429	0.047
5.43	0.039
5.431	0.031
5.432	0.022
5.433	0.014
5.434	0.006
5.435	0
5.436	-0.005
5.437	-0.008
5.438	-0.009
5.439	-0.009
5.44	-0.008
5.441	-0.006
5.442	-0.003
5.443	0
5.444	0.002
5.445	0.004
5.446	0.005
5.447	0.005
5.448	0.003
5.449	0.001
5.45	-0.002
5.451	-0.006
5.452	-0.01
5.453	-0.013
5.454	-0.016
5.455	-0.018
5.456	-0.019
5.457	-0.019
5.458	-0.018
5.459	-0.015
5.46	-0.012
5.461	-0.008
5.462	-0.003
5.463	0.001
5.464	0.004
5.465	0.007
5.466	0.009
5.467	0.01
5.468	0.01
5.469	0.008
5.47	0.006
5.471	0.002
5.472	-0.001
5.473	-0.005
5.474	-0.009
5.475	-0.012
5.476	-0.015
5.477	-0.017
5.478	-0.018
5.479	-0.018
5.48	-0.017
5.481	-0.016
5.482	-0.014
5.483	-0.012
5.484	-0.01
5.485	-0.008
5.486	-0.007
5.487	-0.006
5.488	-0.005
5.489	-0.006
5.49	-0.006
5.491	-0.007
5.492	-0.008
5.493	-0.009
5.494	-0.01
5.495	-0.01
5.496	-0.011
5.497	-0.01
5.498	-0.009
5.499	-0.008
5.5	-0.007
5.501	-0.005
5.502	-0.003
5.503	-0.001
5.504	0
5.505	0.001
5.506	0.002
5.507	0.002
5.508	0.002
5.509	0.002
5.51	0.002
5.511	0.001
5.512	0.001
5.513	0.001
5.514	0.002
5.515	0.002
5.516	0.003
5.517	0.004
5.518	0.005
5.519	0.005
5.52	0.006
5.521	0.006
5.522	0.005
5.523	0.003
5.524	0.001
5.525	-0.002
5.526	-0.006
5.527	-0.01
5.528	-0.014
5.529	-0.018
5.53	-0.021
5.531	-0.024
5.532	-0.026
5.533	-0.026
5.534	-0.025
5.535	-0.023
5.536	-0.019
5.537	-0.014
5.538	-0.009
5.539	-0.002
5.54	0.004
5.541	0.01
5.542	0.015
5.543	0.02
5.544	0.023
5.545	0.025
5.546	0.025
5.547	0.025
5.548	0.023
5.549	0.02
5.55	0.017
5.551	0.013
5.552	0.01
5.553	0.008
5.554	0.006
5.555	0.005
5.556	0.005
5.557	0.007
5.558	0.009
5.559	0.011
5.56	0.014
5.561	0.017
5.562	0.019
5.563	0.021
5.564	0.021
5.565	0.021
5.566	0.02
5.567	0.017
5.568	0.014
5.569	0.009
5.57	0.005
5.571	0
5.572	-0.004
5.573	-0.008
5.574	-0.01
5.575	-0.012
5.576	-0.012
5.577	-0.012
5.578	-0.01
5.579	-0.008
5.58	-0.004
5.581	-0.001
5.582	0.002
5.583	0.005
5.584	0.006
5.585	0.007
5.586	0.007
5.587	0.006
5.588	0.004
5.589	0.002
5.59	-0.001
5.591	-0.005
5.592	-0.008
5.593	-0.011
5.594	-0.013
5.595	-0.015
5.596	-0.015
5.597	-0.015
5.598	-0.014
5.599	-0.012
5.6	-0.01
5.601	-0.008
5.602	-0.006
5.603	-0.005
5.604	-0.004
5.605	-0.004
5.606	-0.004
5.607	-0.006
5.608	-0.007
5.609	-0.009
5.61	-0.012
5.611	-0.013
5.612	-0.015
5.613	-0.015
5.614	-0.015
5.615	-0.014
5.616	-0.011
5.617	-0.008
5.618	-0.004
5.619	0
5.62	0.004
5.621	0.008
5.622	0.011
5.623	0.013
5.624	0.015
5.625	0.015
5.626	0.013
5.627	0.011
5.628	0.008
5.629	0.004
5.63	0
5.631	-0.004
5.632	-0.006
5.633	-0.008
5.634	-0.009
5.635	-0.008
5.636	-0.005
5.637	-0.001
5.638	0.004
5.639	0.01
5.64	0.017
5.641	0.023
5.642	0.029
5.643	0.033
5.644	0.036
5.645	0.038
5.646	0.037
5.647	0.034
5.648	0.03
5.649	0.024
5.65	0.017
5.651	0.009
5.652	0.001
5.653	-0.007
5.654	-0.013
5.655	-0.018
5.656	-0.022
5.657	-0.023
5.658	-0.023
5.659	-0.021
5.66	-0.018
5.661	-0.013
5.662	-0.008
5.663	-0.002
5.664	0.003
5.665	0.008
5.666	0.012
5.667	0.015
5.668	0.016
5.669	0.016
5.67	0.015
5.671	0.013
5.672	0.009
5.673	0.006
5.674	0.002
5.675	-0.001
5.676	-0.004
5.677	-0.007
5.678	-0.008
5.679	-0.009
5.68	-0.009
5.681	-0.008
5.682	-0.007
5.683	-0.006
5.684	-0.005
5.685	-0.004
5.686	-0.003
5.687	-0.003
5.688	-0.003
5.689	-0.004
5.69	-0.005
5.691	-0.007
5.692	-0.008
5.693	-0.009
5.694	-0.01
5.695	-0.01
5.696	-0.01
5.697	-0.009
5.698	-0.007
5.699	-0.005
5.7	-0.002
5.701	0.001
5.702	0.004
5.703	0.007
5.704	0.01
5.705	0.011
5.706	0.012
5.707	0.012
5.708	0.011
5.709	0.009
5.71	0.006
5.711	0.003
5.712	-0.001
5.713	-0.004
5.714	-0.008
5.715	-0.011
5.716	-0.013
5.717	-0.015
5.718	-0.016
5.719	-0.016
5.72	-0.015
5.721	-0.013
5.722	-0.01
5.723	-0.006
5.724	-0.002
5.725	0.002
5.726	0.007
5.727	0.011
5.728	0.016
5.729	0.02
5.73	0.025
5.731	0.028
5.732	0.032
5.733	0.035
5.734	0.037
5.735	0.039
5.736	0.04
5.737	0.04
5.738	0.04
5.739	0.038
5.74	0.036
5.741	0.032
5.742	0.028
5.743	0.023
5.744	0.017
5.745	0.011
5.746	0.005
5.747	0
5.748	-0.006
5.749	-0.01
5.75	-0.013
5.751	-0.016
5.752	-0.016
5.753	-0.015
5.754	-0.013
5.755	-0.01
5.756	-0.005
5.757	0
5.758	0.006
5.759	0.012
5.76	0.017
5.761	0.021
5.762	0.025
5.763	0.027
5.764	0.028
5.765	0.027
5.766	0.025
5.767	0.023
5.768	0.019
5.769	0.015
5.77	0.011
5.771	0.008
5.772	0.005
5.773	0.003
5.774	0.002
5.775	0.002
5.776	0.003
5.777	0.004
5.778	0.007
5.779	0.009
5.78	0.012
5.781	0.014
5.782	0.016
5.783	0.017
5.784	0.017
5.785	0.016
5.786	0.014
5.787	0.011
5.788	0.009
5.789	0.006
5.79	0.004
5.791	0.002
5.792	0.002
5.793	0.002
5.794	0.004
5.795	0.007
5.796	0.011
5.797	0.016
5.798	0.021
5.799	0.027
5.8	0.032
5.801	0.036
5.802	0.038
5.803	0.04
5.804	0.039
5.805	0.036
5.806	0.032
5.807	0.027
5.808	0.02
5.809	0.013
5.81	0.006
5.811	0
5.812	-0.006
5.813	-0.01
5.814	-0.013
5.815	-0.013
5.816	-0.012
5.817	-0.01
5.818	-0.005
5.819	0
5.82	0.005
5.821	0.01
5.822	0.015
5.823	0.018
5.824	0.021
5.825	0.021
5.826	0.02
5.827	0.018
5.828	0.014
5.829	0.01
5.83	0.006
5.831	0.001
5.832	-0.002
5.833	-0.005
5.834	-0.006
5.835	-0.005
5.836	-0.002
5.837	0.003
5.838	0.009
5.839	0.016
5.84	0.024
5.841	0.031
5.842	0.038
5.843	0.044
5.844	0.048
5.845	0.051
5.846	0.051
5.847	0.049
5.848	0.045
5.849	0.04
5.85	0.033
5.851	0.025
5.852	0.018
5.853	0.011
5.854	0.005
5.855	0
5.856	-0.003
5.857	-0.004
5.858	-0.004
5.859	-0.002
5.86	0.001
5.861	0.005
5.862	0.009
5.863	0.012
5.864	0.015
5.865	0.017
5.866	0.017
5.867	0.016
5.868	0.013
5.869	0.01
5.87	0.005
5.871	0
5.872	-0.006
5.873	-0.011
5.874	-0.015
5.875	-0.018
5.876	-0.019
5.877	-0.019
5.878	-0.017
5.879	-0.014
5.88	-0.01
5.881	-0.004
5.882	0.001
5.883	0.007
5.884	0.012
5.885	0.016
5.886	0.018
5.887	0.02
5.888	0.02
5.889	0.018
5.89	0.016
5.891	0.012
5.892	0.009
5.893	0.005
5.894	0.001
5.895	-0.002
5.896	-0.004
5.897	-0.004
5.898	-0.004
5.899	-0.002
5.9	0.001
5.901	0.004
5.902	0.008
5.903	0.013
5.904	0.017
5.905	0.02
5.906	0.023
5.907	0.025
5.908	0.025
5.909	0.025
5.91	0.023
5.911	0.021
5.912	0.018
5.913	0.015
5.914	0.012
5.915	0.009
5.916	0.006
5.917	0.004
5.918	0.002
5.919	0.001
5.92	0
5.921	0
5.922	0
5.923	0.001
5.924	0.001
5.925	0.002
5.926	0.002
5.927	0.002
5.928	0.002
5.929	0.002
5.93	0.003
5.931	0.003
5.932	0.004
5.933	0.006
5.934	0.008
5.935	0.01
5.936	0.013
5.937	0.017
5.938	0.02
5.939	0.023
5.94	0.025
5.941	0.027
5.942	0.027
5.943	0.026
5.944	0.023
5.945	0.019
5.946	0.012
5.947	0.005
5.948	-0.003
5.949	-0.012
5.95	-0.021
5.951	-0.03
5.952	-0.038
5.953	-0.044
5.954	-0.049
5.955	-0.051
5.956	-0.051
5.957	-0.049
5.958	-0.045
5.959	-0.04
5.96	-0.033
5.961	-0.025
5.962	-0.018
5.963	-0.011
5.964	-0.005
5.965	-0.001
5.966	0.001
5.967	0.002
5.968	0
5.969	-0.004
5.97	-0.01
5.971	-0.017
5.972	-0.025
5.973	-0.033
5.974	-0.041
5.975	-0.049
5.976	-0.055
5.977	-0.06
5.978	-0.064
5.979	-0.066
5.98	-0.067
5.981	-0.066
5.982	-0.064
5.983	-0.061
5.984	-0.057
5.985	-0.053
5.986	-0.049
5.987	-0.044
5.988	-0.04
5.989	-0.035
5.99	-0.031
5.991	-0.026
5.992	-0.021
5.993	-0.016
5.994	-0.011
5.995	-0.005
5.996	0.002
5.997	0.008
5.998	0.016
5.999	0.023
6	0.03
6.001	0.036
6.002	0.042
6.003	0.046
6.004	0.049
6.005	0.051
6.006	0.05
6.007	0.048
6.008	0.045
6.009	0.04
6.01	0.034
6.011	0.028
6.012	0.021
6.013	0.015
6.014	0.009
6.015	0.004
6.016	0
6.017	-0.002
6.018	-0.003
6.019	-0.002
6.02	0
6.021	0.003
6.022	0.006
6.023	0.01
6.024	0.015
6.025	0.019
6.026	0.023
6.027	0.026
6.028	0.029
6.029	0.03
6.03	0.032
6.031	0.033
6.032	0.033
6.033	0.033
6.034	0.034
6.035	0.034
6.036	0.035
6.037	0.035
6.038	0.036
6.039	0.037
6.04	0.038
6.041	0.039
6.042	0.039
6.043	0.039
6.044	0.038
6.045	0.036
6.046	0.033
6.047	0.029
6.048	0.025
6.049	0.02
6.05	0.015
6.051	0.009
6.052	0.004
6.053	-0.001
6.054	-0.005
6.055	-0.008
6.056	-0.01
6.057	-0.011
6.058	-0.011
6.059	-0.011
6.06	-0.01
6.061	-0.008
6.062	-0.006
6.063	-0.005
6.064	-0.004
6.065	-0.004
6.066	-0.005
6.067	-0.008
6.068	-0.011
6.069	-0.016
6.07	-0.022
6.071	-0.03
6.072	-0.039
6.073	-0.049
6.074	-0.06
6.075	-0.072
6.076	-0.086
6.077	-0.1
6.078	-0.115
6.079	-0.132
6.08	-0.149
6.081	-0.168
6.082	-0.187
6.083	-0.207
6.084	-0.226
6.085	-0.246
6.086	-0.264
6.087	-0.282
6.088	-0.296
6.089	-0.308
6.09	-0.316
6.091	-0.319
6.092	-0.317
6.093	-0.309
6.094	-0.295
6.095	-0.275
6.096	-0.248
6.097	-0.215
6.098	-0.176
6.099	-0.131
6.1	-0.081
6.101	-0.028
6.102	0.028
6.103	0.087
6.104	0.146
6.105	0.206
6.106	0.266
6.107	0.324
6.108	0.381
6.109	0.434
6.11	0.485
6.111	0.532
6.112	0.576
6.113	0.615
6.114	0.649
6.115	0.678
6.116	0.702
6.117	0.721
6.118	0.733
6.119	0.738
6.12	0.737
6.121	0.73
6.122	0.716
6.123	0.696
6.124	0.671
6.125	0.64
6.126	0.605
6.127	0.567
6.128	0.527
6.129	0.486
6.13	0.446
6.131	0.406
6.132	0.37
6.133	0.336
6.134	0.307
6.135	0.282
6.136	0.261
6.137	0.244
6.138	0.231
6.139	0.221
6.14	0.214
6.141	0.207
6.142	0.201
6.143	0.195
6.144	0.187
6.145	0.177
6.146	0.166
6.147	0.151
6.148	0.134
6.149	0.115
6.15	0.095
6.151	0.074
6.152	0.053
6.153	0.032
6.154	0.013
6.155	-0.003
6.156	-0.017
6.157	-0.028
6.158	-0.035
6.159	-0.04
6.16	-0.041
6.161	-0.041
6.162	-0.039
6.163	-0.036
6.164	-0.032
6.165	-0.029
6.166	-0.026
6.167	-0.025
6.168	-0.025
6.169	-0.027
6.17	-0.03
6.171	-0.034
6.172	-0.038
6.173	-0.043
6.174	-0.048
6.175	-0.052
6.176	-0.054
6.177	-0.056
6.178	-0.056
6.179	-0.055
6.18	-0.052
6.181	-0.049
6.182	-0.045
6.183	-0.041
6.184	-0.037
6.185	-0.034
6.186	-0.032
6.187	-0.032
6.188	-0.032
6.189	-0.035
6.19	-0.038
6.191	-0.042
6.192	-0.047
6.193	-0.052
6.194	-0.057
6.195	-0.061
6.196	-0.064
6.197	-0.066
6.198	-0.066
6.199	-0.065
6.2	-0.063
6.201	-0.061
6.202	-0.057
6.203	-0.054
6.204	-0.051
6.205	-0.049
6.206	-0.048
6.207	-0.048
6.208	-0.05
6.209	-0.053
6.21	-0.057
6.211	-0.063
6.212	-0.069
6.213	-0.074
6.214	-0.08
6.215	-0.084
6.216	-0.087
6.217	-0.089
6.218	-0.088
6.219	-0.086
6.22	-0.082
6.221	-0.077
6.222	-0.07
6.223	-0.063
6.224	-0.056
6.225	-0.05
6.226	-0.044
6.227	-0.04
6.228	-0.038
6.229	-0.037
6.23	-0.039
6.231	-0.043
6.232	-0.049
6.233	-0.056
6.234	-0.063
6.235	-0.072
6.236	-0.08
6.237	-0.088
6.238	-0.094
6.239	-0.1
6.24	-0.104
6.241	-0.106
6.242	-0.106
6.243	-0.105
6.244	-0.102
6.245	-0.098
6.246	-0.093
6.247	-0.088
6.248	-0.083
6.249	-0.079
6.25	-0.075
6.251	-0.072
6.252	-0.069
6.253	-0.068
6.254	-0.068
6.255	-0.07
6.256	-0.072
6.257	-0.075
6.258	-0.079
6.259	-0.084
6.26	-0.089
6.261	-0.094
6.262	-0.099
6.263	-0.104
6.264	-0.109
6.265	-0.114
6.266	-0.118
6.267	-0.122
6.268	-0.125
6.269	-0.127
6.27	-0.129
6.271	-0.131
6.272	-0.131
6.273	-0.132
6.274	-0.131
6.275	-0.131
6.276	-0.13
6.277	-0.13
6.278	-0.129
6.279	-0.129
6.28	-0.129
6.281	-0.131
6.282	-0.132
6.283	-0.135
6.284	-0.138
6.285	-0.142
6.286	-0.146
6.287	-0.15
6.288	-0.155
6.289	-0.159
6.29	-0.163
6.291	-0.166
6.292	-0.168
6.293	-0.169
6.294	-0.169
6.295	-0.168
6.296	-0.166
6.297	-0.163
6.298	-0.16
6.299	-0.157
6.3	-0.154
6.301	-0.152
6.302	-0.15
6.303	-0.149
6.304	-0.149
6.305	-0.151
6.306	-0.153
6.307	-0.157
6.308	-0.161
6.309	-0.165
6.31	-0.169
6.311	-0.173
6.312	-0.177
6.313	-0.179
6.314	-0.181
6.315	-0.181
6.316	-0.18
6.317	-0.179
6.318	-0.177
6.319	-0.174
6.32	-0.171
6.321	-0.168
6.322	-0.166
6.323	-0.165
6.324	-0.165
6.325	-0.166
6.326	-0.167
6.327	-0.17
6.328	-0.173
6.329	-0.177
6.33	-0.18
6.331	-0.183
6.332	-0.185
6.333	-0.186
6.334	-0.185
6.335	-0.183
6.336	-0.179
6.337	-0.174
6.338	-0.168
6.339	-0.161
6.34	-0.154
6.341	-0.147
6.342	-0.141
6.343	-0.136
6.344	-0.132
6.345	-0.129
6.346	-0.129
6.347	-0.129
6.348	-0.131
6.349	-0.134
6.35	-0.137
6.351	-0.141
6.352	-0.144
6.353	-0.146
6.354	-0.147
6.355	-0.146
6.356	-0.144
6.357	-0.141
6.358	-0.136
6.359	-0.129
6.36	-0.122
6.361	-0.115
6.362	-0.107
6.363	-0.1
6.364	-0.094
6.365	-0.089
6.366	-0.086
6.367	-0.083
6.368	-0.082
6.369	-0.082
6.37	-0.083
6.371	-0.084
6.372	-0.084
6.373	-0.084
6.374	-0.083
6.375	-0.081
6.376	-0.078
6.377	-0.073
6.378	-0.067
6.379	-0.061
6.38	-0.053
6.381	-0.046
6.382	-0.039
6.383	-0.033
6.384	-0.029
6.385	-0.026
6.386	-0.024
6.387	-0.025
6.388	-0.028
6.389	-0.031
6.39	-0.036
6.391	-0.042
6.392	-0.047
6.393	-0.052
6.394	-0.056
6.395	-0.058
6.396	-0.059
6.397	-0.058
6.398	-0.055
6.399	-0.05
6.4	-0.044
6.401	-0.037
6.402	-0.03
6.403	-0.023
6.404	-0.016
6.405	-0.011
6.406	-0.007
6.407	-0.005
6.408	-0.005
6.409	-0.007
6.41	-0.01
6.411	-0.014
6.412	-0.018
6.413	-0.023
6.414	-0.027
6.415	-0.03
6.416	-0.031
6.417	-0.031
6.418	-0.029
6.419	-0.025
6.42	-0.02
6.421	-0.013
6.422	-0.006
6.423	0.002
6.424	0.01
6.425	0.017
6.426	0.023
6.427	0.028
6.428	0.031
6.429	0.033
6.43	0.033
6.431	0.032
6.432	0.03
6.433	0.028
6.434	0.025
6.435	0.023
6.436	0.022
6.437	0.022
6.438	0.023
6.439	0.025
6.44	0.029
6.441	0.034
6.442	0.04
6.443	0.047
6.444	0.053
6.445	0.059
6.446	0.065
6.447	0.069
6.448	0.072
6.449	0.074
6.45	0.074
6.451	0.072
6.452	0.07
6.453	0.066
6.454	0.063
6.455	0.058
6.456	0.055
6.457	0.051
6.458	0.049
6.459	0.048
6.46	0.048
6.461	0.049
6.462	0.051
6.463	0.054
6.464	0.058
6.465	0.062
6.466	0.066
6.467	0.07
6.468	0.074
6.469	0.077
6.47	0.079
6.471	0.081
6.472	0.081
6.473	0.081
6.474	0.08
6.475	0.079
6.476	0.077
6.477	0.074
6.478	0.071
6.479	0.068
6.48	0.065
6.481	0.062
6.482	0.059
6.483	0.055
6.484	0.051
6.485	0.048
6.486	0.044
6.487	0.04
6.488	0.035
6.489	0.031
6.49	0.027
6.491	0.023
6.492	0.02
6.493	0.017
6.494	0.015
6.495	0.013
6.496	0.013
6.497	0.013
6.498	0.014
6.499	0.016
6.5	0.019
6.501	0.022
6.502	0.026
6.503	0.03
6.504	0.034
6.505	0.038
6.506	0.041
6.507	0.044
6.508	0.047
6.509	0.048
6.51	0.049
6.511	0.049
6.512	0.049
6.513	0.048
6.514	0.046
6.515	0.044
6.516	0.042
6.517	0.039
6.518	0.036
6.519	0.032
6.52	0.029
6.521	0.025
6.522	0.021
6.523	0.017
6.524	0.013
6.525	0.01
6.526	0.006
6.527	0.004
6.528	0.002
6.529	0.001
6.53	0.001
6.531	0.002
6.532	0.004
6.533	0.008
6.534	0.013
6.535	0.018
6.536	0.025
6.537	0.031
6.538	0.038
6.539	0.045
6.54	0.05
6.541	0.055
6.542	0.059
6.543	0.061
6.544	0.061
6.545	0.059
6.546	0.056
6.547	0.052
6.548	0.046
6.549	0.04
6.55	0.034
6.551	0.027
6.552	0.021
6.553	0.016
6.554	0.012
6.555	0.009
6.556	0.007
6.557	0.007
6.558	0.008
6.559	0.009
6.56	0.011
6.561	0.014
6.562	0.016
6.563	0.018
6.564	0.019
6.565	0.02
6.566	0.019
6.567	0.018
6.568	0.016
6.569	0.013
6.57	0.01
6.571	0.007
6.572	0.004
6.573	0.001
6.574	-0.001
6.575	-0.002
6.576	-0.003
6.577	-0.003
6.578	-0.003
6.579	-0.002
6.58	-0.001
6.581	-0.001
6.582	-0.001
6.583	-0.001
6.584	-0.002
6.585	-0.004
6.586	-0.007
6.587	-0.011
6.588	-0.015
6.589	-0.019
6.59	-0.022
6.591	-0.025
6.592	-0.027
6.593	-0.028
6.594	-0.027
6.595	-0.025
6.596	-0.021
6.597	-0.015
6.598	-0.009
6.599	-0.002
6.6	0.006
6.601	0.014
6.602	0.021
6.603	0.027
6.604	0.032
6.605	0.035
6.606	0.037
6.607	0.037
6.608	0.035
6.609	0.032
6.61	0.028
6.611	0.024
6.612	0.02
6.613	0.016
6.614	0.013
6.615	0.01
6.616	0.009
6.617	0.009
6.618	0.01
6.619	0.012
6.62	0.015
6.621	0.018
6.622	0.021
6.623	0.023
6.624	0.025
6.625	0.026
6.626	0.027
6.627	0.026
6.628	0.024
6.629	0.022
6.63	0.019
6.631	0.016
6.632	0.013
6.633	0.011
6.634	0.01
6.635	0.009
6.636	0.01
6.637	0.012
6.638	0.015
6.639	0.019
6.64	0.023
6.641	0.027
6.642	0.031
6.643	0.033
6.644	0.035
6.645	0.036
6.646	0.035
6.647	0.033
6.648	0.03
6.649	0.026
6.65	0.022
6.651	0.017
6.652	0.012
6.653	0.008
6.654	0.006
6.655	0.004
6.656	0.005
6.657	0.006
6.658	0.009
6.659	0.014
6.66	0.019
6.661	0.025
6.662	0.031
6.663	0.036
6.664	0.04
6.665	0.043
6.666	0.045
6.667	0.045
6.668	0.043
6.669	0.039
6.67	0.035
6.671	0.029
6.672	0.023
6.673	0.016
6.674	0.011
6.675	0.005
6.676	0.001
6.677	-0.001
6.678	-0.002
6.679	-0.002
6.68	-0.001
6.681	0.002
6.682	0.005
6.683	0.009
6.684	0.013
6.685	0.017
6.686	0.021
6.687	0.024
6.688	0.026
6.689	0.028
6.69	0.029
6.691	0.03
6.692	0.03
6.693	0.031
6.694	0.032
6.695	0.032
6.696	0.034
6.697	0.035
6.698	0.037
6.699	0.039
6.7	0.042
6.701	0.044
6.702	0.045
6.703	0.046
6.704	0.046
6.705	0.045
6.706	0.043
6.707	0.039
6.708	0.035
6.709	0.03
6.71	0.025
6.711	0.019
6.712	0.014
6.713	0.009
6.714	0.005
6.715	0.003
6.716	0.001
6.717	0.001
6.718	0.002
6.719	0.004
6.72	0.008
6.721	0.011
6.722	0.015
6.723	0.018
6.724	0.022
6.725	0.024
6.726	0.025
6.727	0.026
6.728	0.025
6.729	0.023
6.73	0.021
6.731	0.018
6.732	0.015
6.733	0.012
6.734	0.009
6.735	0.007
6.736	0.005
6.737	0.004
6.738	0.003
6.739	0.003
6.74	0.003
6.741	0.003
6.742	0.003
6.743	0.002
6.744	0
6.745	-0.002
6.746	-0.005
6.747	-0.008
6.748	-0.012
6.749	-0.017
6.75	-0.021
6.751	-0.025
6.752	-0.028
6.753	-0.029
6.754	-0.03
6.755	-0.028
6.756	-0.025
6.757	-0.021
6.758	-0.015
6.759	-0.009
6.76	-0.001
6.761	0.006
6.762	0.012
6.763	0.018
6.764	0.023
6.765	0.025
6.766	0.026
6.767	0.025
6.768	0.022
6.769	0.018
6.77	0.013
6.771	0.007
6.772	0.002
6.773	-0.004
6.774	-0.008
6.775	-0.01
6.776	-0.011
6.777	-0.01
6.778	-0.007
6.779	-0.002
6.78	0.004
6.781	0.011
6.782	0.018
6.783	0.025
6.784	0.032
6.785	0.037
6.786	0.04
6.787	0.041
6.788	0.041
6.789	0.038
6.79	0.033
6.791	0.027
6.792	0.02
6.793	0.013
6.794	0.006
6.795	0
6.796	-0.005
6.797	-0.009
6.798	-0.011
6.799	-0.01
6.8	-0.009
6.801	-0.005
6.802	0
6.803	0.005
6.804	0.011
6.805	0.017
6.806	0.022
6.807	0.026
6.808	0.029
6.809	0.03
6.81	0.03
6.811	0.028
6.812	0.025
6.813	0.02
6.814	0.015
6.815	0.009
6.816	0.003
6.817	-0.002
6.818	-0.007
6.819	-0.012
6.82	-0.015
6.821	-0.017
6.822	-0.018
6.823	-0.018
6.824	-0.018
6.825	-0.016
6.826	-0.015
6.827	-0.012
6.828	-0.01
6.829	-0.007
6.83	-0.005
6.831	-0.002
6.832	0.001
6.833	0.004
6.834	0.007
6.835	0.01
6.836	0.012
6.837	0.015
6.838	0.018
6.839	0.02
6.84	0.022
6.841	0.023
6.842	0.024
6.843	0.023
6.844	0.022
6.845	0.02
6.846	0.016
6.847	0.012
6.848	0.007
6.849	0.001
6.85	-0.004
6.851	-0.01
6.852	-0.015
6.853	-0.02
6.854	-0.023
6.855	-0.026
6.856	-0.027
6.857	-0.027
6.858	-0.025
6.859	-0.023
6.86	-0.019
6.861	-0.016
6.862	-0.012
6.863	-0.008
6.864	-0.004
6.865	-0.001
6.866	0.001
6.867	0.002
6.868	0.003
6.869	0.002
6.87	0.002
6.871	0
6.872	-0.001
6.873	-0.002
6.874	-0.003
6.875	-0.003
6.876	-0.002
6.877	-0.001
6.878	0.002
6.879	0.004
6.88	0.007
6.881	0.011
6.882	0.014
6.883	0.016
6.884	0.018
6.885	0.018
6.886	0.018
6.887	0.016
6.888	0.013
6.889	0.01
6.89	0.005
6.891	0
6.892	-0.005
6.893	-0.01
6.894	-0.014
6.895	-0.017
6.896	-0.02
6.897	-0.021
6.898	-0.021
6.899	-0.02
6.9	-0.018
6.901	-0.016
6.902	-0.013
6.903	-0.01
6.904	-0.008
6.905	-0.006
6.906	-0.005
6.907	-0.004
6.908	-0.005
6.909	-0.007
6.91	-0.01
6.911	-0.013
6.912	-0.016
6.913	-0.019
6.914	-0.022
6.915	-0.025
6.916	-0.026
6.917	-0.027
6.918	-0.027
6.919	-0.027
6.92	-0.025
6.921	-0.023
6.922	-0.021
6.923	-0.019
6.924	-0.017
6.925	-0.016
6.926	-0.015
6.927	-0.015
6.928	-0.015
6.929	-0.016
6.93	-0.018
6.931	-0.02
6.932	-0.022
6.933	-0.024
6.934	-0.026
6.935	-0.027
6.936	-0.027
6.937	-0.026
6.938	-0.025
6.939	-0.024
6.94	-0.021
6.941	-0.019
6.942	-0.016
6.943	-0.014
6.944	-0.012
6.945	-0.01
6.946	-0.009
6.947	-0.009
6.948	-0.009
6.949	-0.01
6.95	-0.012
6.951	-0.014
6.952	-0.017
6.953	-0.019
6.954	-0.021
6.955	-0.023
6.956	-0.025
6.957	-0.026
6.958	-0.027
6.959	-0.028
6.96	-0.028
6.961	-0.029
6.962	-0.03
6.963	-0.031
6.964	-0.032
6.965	-0.033
6.966	-0.035
6.967	-0.037
6.968	-0.038
6.969	-0.039
6.97	-0.039
6.971	-0.039
6.972	-0.037
6.973	-0.035
6.974	-0.031
6.975	-0.026
6.976	-0.02
6.977	-0.013
6.978	-0.006
6.979	0
6.98	0.007
6.981	0.012
6.982	0.016
6.983	0.018
6.984	0.018
6.985	0.016
6.986	0.013
6.987	0.008
6.988	0.002
6.989	-0.005
6.99	-0.012
6.991	-0.018
6.992	-0.023
6.993	-0.026
6.994	-0.027
6.995	-0.026
6.996	-0.022
6.997	-0.017
6.998	-0.009
6.999	0
7	0.01
7.001	0.02
7.002	0.03
7.003	0.038
7.004	0.044
7.005	0.049
7.006	0.051
7.007	0.05
7.008	0.047
7.009	0.042
7.01	0.036
7.011	0.029
7.012	0.022
7.013	0.015
7.014	0.01
7.015	0.006
7.016	0.005
7.017	0.005
7.018	0.008
7.019	0.012
7.02	0.017
7.021	0.024
7.022	0.03
7.023	0.036
7.024	0.041
7.025	0.044
7.026	0.045
7.027	0.043
7.028	0.039
7.029	0.033
7.03	0.025
7.031	0.015
7.032	0.005
7.033	-0.004
7.034	-0.013
7.035	-0.02
7.036	-0.025
7.037	-0.027
7.038	-0.027
7.039	-0.023
7.04	-0.018
7.041	-0.01
7.042	0
7.043	0.01
7.044	0.021
7.045	0.031
7.046	0.039
7.047	0.046
7.048	0.05
7.049	0.052
7.05	0.052
7.051	0.048
7.052	0.043
7.053	0.035
7.054	0.026
7.055	0.015
7.056	0.004
7.057	-0.008
7.058	-0.02
7.059	-0.033
7.06	-0.047
7.061	-0.06
7.062	-0.075
7.063	-0.091
7.064	-0.108
7.065	-0.126
7.066	-0.146
7.067	-0.168
7.068	-0.19
7.069	-0.214
7.07	-0.237
7.071	-0.26
7.072	-0.282
7.073	-0.3
7.074	-0.315
7.075	-0.325
7.076	-0.33
7.077	-0.328
7.078	-0.318
7.079	-0.3
7.08	-0.275
7.081	-0.243
7.082	-0.204
7.083	-0.157
7.084	-0.106
7.085	-0.05
7.086	0.009
7.087	0.07
7.088	0.133
7.089	0.195
7.09	0.255
7.091	0.314
7.092	0.37
7.093	0.423
7.094	0.471
7.095	0.515
7.096	0.555
7.097	0.591
7.098	0.623
7.099	0.649
7.1	0.671
7.101	0.69
7.102	0.704
7.103	0.714
7.104	0.719
7.105	0.72
7.106	0.718
7.107	0.712
7.108	0.702
7.109	0.687
7.11	0.67
7.111	0.65
7.112	0.627
7.113	0.601
7.114	0.573
7.115	0.544
7.116	0.513
7.117	0.482
7.118	0.45
7.119	0.417
7.12	0.385
7.121	0.353
7.122	0.321
7.123	0.289
7.124	0.259
7.125	0.229
7.126	0.2
7.127	0.172
7.128	0.145
7.129	0.119
7.13	0.096
7.131	0.074
7.132	0.054
7.133	0.036
7.134	0.021
7.135	0.008
7.136	-0.003
7.137	-0.012
7.138	-0.019
7.139	-0.024
7.14	-0.027
7.141	-0.03
7.142	-0.031
7.143	-0.033
7.144	-0.034
7.145	-0.036
7.146	-0.038
7.147	-0.04
7.148	-0.043
7.149	-0.046
7.15	-0.049
7.151	-0.052
7.152	-0.055
7.153	-0.058
7.154	-0.06
7.155	-0.06
7.156	-0.06
7.157	-0.059
7.158	-0.057
7.159	-0.054
7.16	-0.051
7.161	-0.047
7.162	-0.044
7.163	-0.041
7.164	-0.039
7.165	-0.038
7.166	-0.038
7.167	-0.039
7.168	-0.042
7.169	-0.046
7.17	-0.051
7.171	-0.056
7.172	-0.062
7.173	-0.068
7.174	-0.074
7.175	-0.079
7.176	-0.083
7.177	-0.085
7.178	-0.087
7.179	-0.088
7.18	-0.087
7.181	-0.086
7.182	-0.085
7.183	-0.083
7.184	-0.081
7.185	-0.08
7.186	-0.079
7.187	-0.079
7.188	-0.08
7.189	-0.081
7.19	-0.083
7.191	-0.085
7.192	-0.087
7.193	-0.09
7.194	-0.092
7.195	-0.094
7.196	-0.094
7.197	-0.094
7.198	-0.094
7.199	-0.092
7.2	-0.089
7.201	-0.087
7.202	-0.084
7.203	-0.08
7.204	-0.078
7.205	-0.075
7.206	-0.074
7.207	-0.073
7.208	-0.073
7.209	-0.074
7.21	-0.076
7.211	-0.078
7.212	-0.081
7.213	-0.084
7.214	-0.087
7.215	-0.09
7.216	-0.092
7.217	-0.094
7.218	-0.095
7.219	-0.096
7.22	-0.096
7.221	-0.095
7.222	-0.095
7.223	-0.095
7.224	-0.094
7.225	-0.094
7.226	-0.094
7.227	-0.094
7.228	-0.095
7.229	-0.096
7.23	-0.097
7.231	-0.098
7.232	-0.099
7.233	-0.1
7.234	-0.1
7.235	-0.1
7.236	-0.099
7.237	-0.098
7.238	-0.097
7.239	-0.095
7.24	-0.094
7.241	-0.093
7.242	-0.093
7.243	-0.093
7.244	-0.094
7.245	-0.096
7.246	-0.099
7.247	-0.103
7.248	-0.107
7.249	-0.112
7.25	-0.117
7.251	-0.122
7.252	-0.126
7.253	-0.13
7.254	-0.133
7.255	-0.135
7.256	-0.136
7.257	-0.136
7.258	-0.135
7.259	-0.133
7.26	-0.131
7.261	-0.129
7.262	-0.128
7.263	-0.126
7.264	-0.126
7.265	-0.126
7.266	-0.128
7.267	-0.13
7.268	-0.133
7.269	-0.136
7.27	-0.14
7.271	-0.143
7.272	-0.146
7.273	-0.149
7.274	-0.15
7.275	-0.151
7.276	-0.151
7.277	-0.15
7.278	-0.148
7.279	-0.145
7.28	-0.143
7.281	-0.141
7.282	-0.139
7.283	-0.138
7.284	-0.139
7.285	-0.14
7.286	-0.143
7.287	-0.147
7.288	-0.152
7.289	-0.157
7.29	-0.162
7.291	-0.167
7.292	-0.172
7.293	-0.175
7.294	-0.177
7.295	-0.178
7.296	-0.177
7.297	-0.174
7.298	-0.17
7.299	-0.165
7.3	-0.159
7.301	-0.154
7.302	-0.149
7.303	-0.145
7.304	-0.142
7.305	-0.141
7.306	-0.142
7.307	-0.144
7.308	-0.148
7.309	-0.153
7.31	-0.159
7.311	-0.166
7.312	-0.172
7.313	-0.178
7.314	-0.182
7.315	-0.185
7.316	-0.186
7.317	-0.184
7.318	-0.181
7.319	-0.176
7.32	-0.169
7.321	-0.162
7.322	-0.154
7.323	-0.146
7.324	-0.138
7.325	-0.132
7.326	-0.127
7.327	-0.123
7.328	-0.121
7.329	-0.121
7.33	-0.121
7.331	-0.124
7.332	-0.126
7.333	-0.129
7.334	-0.132
7.335	-0.135
7.336	-0.137
7.337	-0.138
7.338	-0.138
7.339	-0.137
7.34	-0.135
7.341	-0.133
7.342	-0.131
7.343	-0.128
7.344	-0.126
7.345	-0.124
7.346	-0.122
7.347	-0.121
7.348	-0.121
7.349	-0.121
7.35	-0.12
7.351	-0.12
7.352	-0.119
7.353	-0.118
7.354	-0.115
7.355	-0.11
7.356	-0.104
7.357	-0.097
7.358	-0.089
7.359	-0.079
7.36	-0.069
7.361	-0.058
7.362	-0.048
7.363	-0.038
7.364	-0.029
7.365	-0.022
7.366	-0.016
7.367	-0.013
7.368	-0.01
7.369	-0.01
7.37	-0.01
7.371	-0.012
7.372	-0.014
7.373	-0.016
7.374	-0.017
7.375	-0.018
7.376	-0.018
7.377	-0.017
7.378	-0.014
7.379	-0.011
7.38	-0.007
7.381	-0.003
7.382	0.002
7.383	0.005
7.384	0.008
7.385	0.01
7.386	0.01
7.387	0.009
7.388	0.007
7.389	0.003
7.39	-0.001
7.391	-0.006
7.392	-0.01
7.393	-0.014
7.394	-0.017
7.395	-0.019
7.396	-0.019
7.397	-0.017
7.398	-0.013
7.399	-0.008
7.4	-0.001
7.401	0.006
7.402	0.014
7.403	0.021
7.404	0.027
7.405	0.033
7.406	0.036
7.407	0.038
7.408	0.037
7.409	0.035
7.41	0.031
7.411	0.026
7.412	0.02
7.413	0.014
7.414	0.008
7.415	0.003
7.416	0
7.417	-0.002
7.418	-0.003
7.419	-0.001
7.42	0.002
7.421	0.007
7.422	0.012
7.423	0.018
7.424	0.025
7.425	0.03
7.426	0.036
7.427	0.04
7.428	0.043
7.429	0.044
7.43	0.044
7.431	0.043
7.432	0.042
7.433	0.04
7.434	0.038
7.435	0.036
7.436	0.036
7.437	0.036
7.438	0.038
7.439	0.042
7.44	0.046
7.441	0.052
7.442	0.059
7.443	0.066
7.444	0.073
7.445	0.079
7.446	0.085
7.447	0.089
7.448	0.092
7.449	0.093
7.45	0.092
7.451	0.089
7.452	0.085
7.453	0.079
7.454	0.073
7.455	0.065
7.456	0.058
7.457	0.051
7.458	0.045
7.459	0.039
7.46	0.035
7.461	0.033
7.462	0.031
7.463	0.031
7.464	0.032
7.465	0.034
7.466	0.037
7.467	0.04
7.468	0.044
7.469	0.047
7.47	0.051
7.471	0.053
7.472	0.056
7.473	0.058
7.474	0.059
7.475	0.059
7.476	0.059
7.477	0.058
7.478	0.056
7.479	0.054
7.48	0.051
7.481	0.048
7.482	0.044
7.483	0.04
7.484	0.036
7.485	0.032
7.486	0.028
7.487	0.024
7.488	0.02
7.489	0.017
7.49	0.014
7.491	0.012
7.492	0.011
7.493	0.01
7.494	0.011
7.495	0.011
7.496	0.013
7.497	0.014
7.498	0.016
7.499	0.018
7.5	0.02
7.501	0.021
7.502	0.022
7.503	0.022
7.504	0.022
7.505	0.021
7.506	0.02
7.507	0.018
7.508	0.016
7.509	0.014
7.51	0.012
7.511	0.011
7.512	0.011
7.513	0.012
7.514	0.014
7.515	0.016
7.516	0.02
7.517	0.023
7.518	0.027
7.519	0.031
7.52	0.035
7.521	0.037
7.522	0.038
7.523	0.038
7.524	0.036
7.525	0.033
7.526	0.028
7.527	0.022
7.528	0.016
7.529	0.009
7.53	0.002
7.531	-0.005
7.532	-0.01
7.533	-0.014
7.534	-0.016
7.535	-0.016
7.536	-0.014
7.537	-0.011
7.538	-0.006
7.539	-0.001
7.54	0.006
7.541	0.012
7.542	0.018
7.543	0.022
7.544	0.026
7.545	0.027
7.546	0.027
7.547	0.025
7.548	0.022
7.549	0.017
7.55	0.011
7.551	0.005
7.552	0
7.553	-0.006
7.554	-0.01
7.555	-0.013
7.556	-0.014
7.557	-0.014
7.558	-0.012
7.559	-0.008
7.56	-0.004
7.561	0.001
7.562	0.006
7.563	0.01
7.564	0.014
7.565	0.017
7.566	0.018
7.567	0.018
7.568	0.017
7.569	0.015
7.57	0.011
7.571	0.007
7.572	0.003
7.573	-0.001
7.574	-0.005
7.575	-0.007
7.576	-0.008
7.577	-0.009
7.578	-0.007
7.579	-0.005
7.58	-0.002
7.581	0.001
7.582	0.005
7.583	0.008
7.584	0.01
7.585	0.012
7.586	0.012
7.587	0.01
7.588	0.008
7.589	0.004
7.59	-0.001
7.591	-0.006
7.592	-0.011
7.593	-0.016
7.594	-0.02
7.595	-0.022
7.596	-0.023
7.597	-0.023
7.598	-0.021
7.599	-0.018
7.6	-0.013
7.601	-0.007
7.602	-0.001
7.603	0.005
7.604	0.011
7.605	0.017
7.606	0.021
7.607	0.024
7.608	0.025
7.609	0.026
7.61	0.025
7.611	0.023
7.612	0.02
7.613	0.017
7.614	0.015
7.615	0.012
7.616	0.01
7.617	0.008
7.618	0.008
7.619	0.008
7.62	0.008
7.621	0.01
7.622	0.011
7.623	0.013
7.624	0.014
7.625	0.016
7.626	0.016
7.627	0.016
7.628	0.016
7.629	0.015
7.63	0.013
7.631	0.012
7.632	0.011
7.633	0.01
7.634	0.01
7.635	0.01
7.636	0.011
7.637	0.014
7.638	0.016
7.639	0.02
7.64	0.023
7.641	0.027
7.642	0.03
7.643	0.033
7.644	0.034
7.645	0.035
7.646	0.034
7.647	0.032
7.648	0.028
7.649	0.024
7.65	0.019
7.651	0.014
7.652	0.008
7.653	0.004
7.654	0
7.655	-0.003
7.656	-0.005
7.657	-0.005
7.658	-0.004
7.659	-0.002
7.66	0.001
7.661	0.005
7.662	0.009
7.663	0.012
7.664	0.016
7.665	0.018
7.666	0.019
7.667	0.02
7.668	0.019
7.669	0.017
7.67	0.014
7.671	0.011
7.672	0.008
7.673	0.005
7.674	0.003
7.675	0.002
7.676	0.002
7.677	0.003
7.678	0.005
7.679	0.007
7.68	0.011
7.681	0.015
7.682	0.018
7.683	0.022
7.684	0.024
7.685	0.025
7.686	0.025
7.687	0.024
7.688	0.021
7.689	0.018
7.69	0.013
7.691	0.008
7.692	0.003
7.693	-0.001
7.694	-0.005
7.695	-0.008
7.696	-0.009
7.697	-0.008
7.698	-0.006
7.699	-0.002
7.7	0.002
7.701	0.008
7.702	0.014
7.703	0.02
7.704	0.025
7.705	0.029
7.706	0.032
7.707	0.033
7.708	0.033
7.709	0.032
7.71	0.029
7.711	0.025
7.712	0.02
7.713	0.016
7.714	0.011
7.715	0.007
7.716	0.005
7.717	0.004
7.718	0.004
7.719	0.005
7.72	0.008
7.721	0.012
7.722	0.017
7.723	0.021
7.724	0.026
7.725	0.03
7.726	0.033
7.727	0.035
7.728	0.035
7.729	0.034
7.73	0.031
7.731	0.027
7.732	0.023
7.733	0.017
7.734	0.012
7.735	0.007
7.736	0.002
7.737	-0.002
7.738	-0.005
7.739	-0.006
7.74	-0.006
7.741	-0.005
7.742	-0.004
7.743	-0.001
7.744	0.002
7.745	0.005
7.746	0.009
7.747	0.012
7.748	0.014
7.749	0.016
7.75	0.017
7.751	0.018
7.752	0.019
7.753	0.019
7.754	0.019
7.755	0.02
7.756	0.02
7.757	0.021
7.758	0.022
7.759	0.023
7.76	0.024
7.761	0.025
7.762	0.027
7.763	0.028
7.764	0.028
7.765	0.028
7.766	0.027
7.767	0.026
7.768	0.024
7.769	0.021
7.77	0.018
7.771	0.015
7.772	0.013
7.773	0.01
7.774	0.009
7.775	0.008
7.776	0.008
7.777	0.009
7.778	0.012
7.779	0.015
7.78	0.019
7.781	0.023
7.782	0.027
7.783	0.031
7.784	0.034
7.785	0.036
7.786	0.037
7.787	0.037
7.788	0.036
7.789	0.033
7.79	0.029
7.791	0.024
7.792	0.019
7.793	0.013
7.794	0.008
7.795	0.003
7.796	-0.002
7.797	-0.005
7.798	-0.007
7.799	-0.009
7.8	-0.009
7.801	-0.009
7.802	-0.008
7.803	-0.006
7.804	-0.004
7.805	-0.002
7.806	0
7.807	0.001
7.808	0.003
7.809	0.004
7.81	0.005
7.811	0.006
7.812	0.006
7.813	0.007
7.814	0.009
7.815	0.011
7.816	0.013
7.817	0.015
7.818	0.018
7.819	0.021
7.82	0.024
7.821	0.026
7.822	0.028
7.823	0.029
7.824	0.03
7.825	0.029
7.826	0.028
7.827	0.025
7.828	0.021
7.829	0.017
7.83	0.013
7.831	0.008
7.832	0.004
7.833	0
7.834	-0.003
7.835	-0.005
7.836	-0.006
7.837	-0.005
7.838	-0.004
7.839	-0.002
7.84	0.001
7.841	0.004
7.842	0.007
7.843	0.009
7.844	0.011
7.845	0.012
7.846	0.011
7.847	0.01
7.848	0.007
7.849	0.004
7.85	0
7.851	-0.004
7.852	-0.008
7.853	-0.011
7.854	-0.014
7.855	-0.015
7.856	-0.016
7.857	-0.015
7.858	-0.012
7.859	-0.009
7.86	-0.006
7.861	-0.002
7.862	0.002
7.863	0.005
7.864	0.007
7.865	0.008
7.866	0.007
7.867	0.005
7.868	0.001
7.869	-0.004
7.87	-0.01
7.871	-0.017
7.872	-0.023
7.873	-0.029
7.874	-0.034
7.875	-0.037
7.876	-0.039
7.877	-0.038
7.878	-0.036
7.879	-0.032
7.88	-0.026
7.881	-0.019
7.882	-0.011
7.883	-0.004
7.884	0.004
7.885	0.01
7.886	0.015
7.887	0.019
7.888	0.021
7.889	0.02
7.89	0.018
7.891	0.015
7.892	0.011
7.893	0.006
7.894	0.001
7.895	-0.004
7.896	-0.008
7.897	-0.011
7.898	-0.012
7.899	-0.011
7.9	-0.009
7.901	-0.005
7.902	0
7.903	0.007
7.904	0.013
7.905	0.02
7.906	0.027
7.907	0.033
7.908	0.038
7.909	0.042
7.91	0.044
7.911	0.046
7.912	0.046
7.913	0.045
7.914	0.043
7.915	0.041
7.916	0.038
7.917	0.036
7.918	0.034
7.919	0.032
7.92	0.031
7.921	0.03
7.922	0.03
7.923	0.031
7.924	0.031
7.925	0.033
7.926	0.034
7.927	0.036
7.928	0.038
7.929	0.039
7.93	0.041
7.931	0.042
7.932	0.043
7.933	0.044
7.934	0.045
7.935	0.046
7.936	0.047
7.937	0.048
7.938	0.049
7.939	0.05
7.94	0.051
7.941	0.052
7.942	0.052
7.943	0.052
7.944	0.052
7.945	0.052
7.946	0.051
7.947	0.049
7.948	0.048
7.949	0.046
7.95	0.044
7.951	0.042
7.952	0.04
7.953	0.039
7.954	0.037
7.955	0.036
7.956	0.035
7.957	0.034
7.958	0.032
7.959	0.03
7.96	0.028
7.961	0.024
7.962	0.02
7.963	0.013
7.964	0.006
7.965	-0.004
7.966	-0.014
7.967	-0.027
7.968	-0.041
7.969	-0.056
7.97	-0.072
7.971	-0.089
7.972	-0.106
7.973	-0.124
7.974	-0.141
7.975	-0.159
7.976	-0.176
7.977	-0.193
7.978	-0.21
7.979	-0.225
7.98	-0.24
7.981	-0.255
7.982	-0.268
7.983	-0.28
7.984	-0.289
7.985	-0.297
7.986	-0.301
7.987	-0.302
7.988	-0.298
7.989	-0.289
7.99	-0.275
7.991	-0.254
7.992	-0.228
7.993	-0.193
7.994	-0.153
7.995	-0.106
7.996	-0.053
7.997	0.004
7.998	0.065
7.999	0.129
8	0.194
8.001	0.258
8.002	0.321
8.003	0.382
8.004	0.438
8.005	0.489
8.006	0.535
8.007	0.575
8.008	0.608
8.009	0.634
8.01	0.655
8.011	0.67
8.012	0.68
8.013	0.686
8.014	0.686
8.015	0.683
8.016	0.678
8.017	0.67
8.018	0.659
8.019	0.645
8.02	0.628
8.021	0.609
8.022	0.588
8.023	0.563
8.024	0.536
8.025	0.506
8.026	0.474
8.027	0.44
8.028	0.405
8.029	0.369
8.03	0.333
8.031	0.299
8.032	0.266
8.033	0.235
8.034	0.208
8.035	0.184
8.036	0.164
8.037	0.147
8.038	0.133
8.039	0.123
8.04	0.115
8.041	0.109
8.042	0.103
8.043	0.097
8.044	0.09
8.045	0.082
8.046	0.072
8.047	0.06
8.048	0.046
8.049	0.03
8.05	0.013
8.051	-0.005
8.052	-0.022
8.053	-0.039
8.054	-0.054
8.055	-0.067
8.056	-0.077
8.057	-0.083
8.058	-0.087
8.059	-0.086
8.06	-0.083
8.061	-0.077
8.062	-0.069
8.063	-0.061
8.064	-0.051
8.065	-0.043
8.066	-0.035
8.067	-0.029
8.068	-0.025
8.069	-0.023
8.07	-0.023
8.071	-0.025
8.072	-0.028
8.073	-0.033
8.074	-0.038
8.075	-0.044
8.076	-0.049
8.077	-0.053
8.078	-0.057
8.079	-0.059
8.08	-0.06
8.081	-0.06
8.082	-0.059
8.083	-0.058
8.084	-0.056
8.085	-0.055
8.086	-0.054
8.087	-0.054
8.088	-0.055
8.089	-0.056
8.09	-0.059
8.091	-0.061
8.092	-0.065
8.093	-0.068
8.094	-0.07
8.095	-0.072
8.096	-0.074
8.097	-0.074
8.098	-0.073
8.099	-0.071
8.1	-0.069
8.101	-0.066
8.102	-0.063
8.103	-0.061
8.104	-0.059
8.105	-0.058
8.106	-0.058
8.107	-0.06
8.108	-0.063
8.109	-0.067
8.11	-0.072
8.111	-0.078
8.112	-0.085
8.113	-0.091
8.114	-0.096
8.115	-0.1
8.116	-0.103
8.117	-0.104
8.118	-0.104
8.119	-0.103
8.12	-0.1
8.121	-0.097
8.122	-0.093
8.123	-0.089
8.124	-0.085
8.125	-0.083
8.126	-0.082
8.127	-0.082
8.128	-0.084
8.129	-0.087
8.13	-0.092
8.131	-0.097
8.132	-0.103
8.133	-0.108
8.134	-0.113
8.135	-0.117
8.136	-0.119
8.137	-0.119
8.138	-0.118
8.139	-0.114
8.14	-0.109
8.141	-0.102
8.142	-0.095
8.143	-0.087
8.144	-0.079
8.145	-0.073
8.146	-0.068
8.147	-0.064
8.148	-0.062
8.149	-0.063
8.15	-0.065
8.151	-0.069
8.152	-0.074
8.153	-0.081
8.154	-0.087
8.155	-0.094
8.156	-0.1
8.157	-0.105
8.158	-0.109
8.159	-0.111
8.16	-0.112
8.161	-0.111
8.162	-0.109
8.163	-0.107
8.164	-0.103
8.165	-0.1
8.166	-0.097
8.167	-0.094
8.168	-0.093
8.169	-0.092
8.17	-0.093
8.171	-0.094
8.172	-0.097
8.173	-0.1
8.174	-0.104
8.175	-0.108
8.176	-0.112
8.177	-0.116
8.178	-0.119
8.179	-0.122
8.18	-0.124
8.181	-0.126
8.182	-0.127
8.183	-0.127
8.184	-0.128
8.185	-0.128
8.186	-0.129
8.187	-0.13
8.188	-0.131
8.189	-0.132
8.19	-0.134
8.191	-0.136
8.192	-0.137
8.193	-0.139
8.194	-0.14
8.195	-0.141
8.196	-0.141
8.197	-0.141
8.198	-0.14
8.199	-0.139
8.2	-0.137
8.201	-0.136
8.202	-0.134
8.203	-0.133
8.204	-0.133
8.205	-0.133
8.206	-0.134
8.207	-0.136
8.208	-0.139
8.209	-0.142
8.21	-0.147
8.211	-0.151
8.212	-0.155
8.213	-0.158
8.214	-0.161
8.215	-0.164
8.216	-0.165
8.217	-0.165
8.218	-0.164
8.219	-0.162
8.22	-0.159
8.221	-0.156
8.222	-0.153
8.223	-0.15
8.224	-0.148
8.225	-0.146
8.226	-0.145
8.227	-0.145
8.228	-0.146
8.229	-0.148
8.23	-0.15
8.231	-0.152
8.232	-0.154
8.233	-0.155
8.234	-0.155
8.235	-0.154
8.236	-0.152
8.237	-0.149
8.238	-0.145
8.239	-0.139
8.24	-0.134
8.241	-0.128
8.242	-0.122
8.243	-0.117
8.244	-0.114
8.245	-0.112
8.246	-0.111
8.247	-0.112
8.248	-0.114
8.249	-0.118
8.25	-0.122
8.251	-0.127
8.252	-0.132
8.253	-0.135
8.254	-0.138
8.255	-0.138
8.256	-0.137
8.257	-0.133
8.258	-0.127
8.259	-0.12
8.26	-0.11
8.261	-0.099
8.262	-0.088
8.263	-0.076
8.264	-0.066
8.265	-0.056
8.266	-0.048
8.267	-0.043
8.268	-0.039
8.269	-0.038
8.27	-0.039
8.271	-0.042
8.272	-0.046
8.273	-0.052
8.274	-0.058
8.275	-0.063
8.276	-0.069
8.277	-0.073
8.278	-0.075
8.279	-0.076
8.28	-0.075
8.281	-0.073
8.282	-0.069
8.283	-0.065
8.284	-0.059
8.285	-0.053
8.286	-0.048
8.287	-0.042
8.288	-0.037
8.289	-0.033
8.29	-0.029
8.291	-0.026
8.292	-0.024
8.293	-0.022
8.294	-0.021
8.295	-0.02
8.296	-0.019
8.297	-0.017
8.298	-0.015
8.299	-0.013
8.3	-0.011
8.301	-0.008
8.302	-0.005
8.303	-0.002
8.304	0.001
8.305	0.004
8.306	0.006
8.307	0.008
8.308	0.01
8.309	0.011
8.31	0.012
8.311	0.014
8.312	0.015
8.313	0.016
8.314	0.018
8.315	0.021
8.316	0.024
8.317	0.027
8.318	0.031
8.319	0.035
8.32	0.039
8.321	0.042
8.322	0.045
8.323	0.046
8.324	0.047
8.325	0.046
8.326	0.044
8.327	0.04
8.328	0.036
8.329	0.031
8.33	0.025
8.331	0.02
8.332	0.016
8.333	0.012
8.334	0.01
8.335	0.01
8.336	0.012
8.337	0.015
8.338	0.02
8.339	0.026
8.34	0.033
8.341	0.041
8.342	0.048
8.343	0.055
8.344	0.06
8.345	0.064
8.346	0.066
8.347	0.065
8.348	0.063
8.349	0.058
8.35	0.052
8.351	0.045
8.352	0.038
8.353	0.03
8.354	0.024
8.355	0.018
8.356	0.014
8.357	0.012
8.358	0.012
8.359	0.014
8.36	0.017
8.361	0.022
8.362	0.028
8.363	0.034
8.364	0.04
8.365	0.045
8.366	0.049
8.367	0.052
8.368	0.053
8.369	0.052
8.37	0.05
8.371	0.047
8.372	0.042
8.373	0.037
8.374	0.032
8.375	0.028
8.376	0.024
8.377	0.021
8.378	0.019
8.379	0.019
8.38	0.02
8.381	0.021
8.382	0.024
8.383	0.027
8.384	0.03
8.385	0.032
8.386	0.034
8.387	0.035
8.388	0.035
8.389	0.034
8.39	0.032
8.391	0.03
8.392	0.026
8.393	0.023
8.394	0.02
8.395	0.018
8.396	0.016
8.397	0.016
8.398	0.017
8.399	0.019
8.4	0.021
8.401	0.025
8.402	0.029
8.403	0.033
8.404	0.037
8.405	0.041
8.406	0.043
8.407	0.044
8.408	0.044
8.409	0.042
8.41	0.04
8.411	0.036
8.412	0.032
8.413	0.027
8.414	0.023
8.415	0.019
8.416	0.015
8.417	0.013
8.418	0.012
8.419	0.012
8.42	0.013
8.421	0.015
8.422	0.018
8.423	0.021
8.424	0.024
8.425	0.027
8.426	0.029
8.427	0.03
8.428	0.03
8.429	0.029
8.43	0.027
8.431	0.024
8.432	0.02
8.433	0.017
8.434	0.013
8.435	0.009
8.436	0.006
8.437	0.004
8.438	0.002
8.439	0.001
8.44	0.001
8.441	0.002
8.442	0.003
8.443	0.003
8.444	0.004
8.445	0.004
8.446	0.004
8.447	0.003
8.448	0.001
8.449	-0.001
8.45	-0.004
8.451	-0.007
8.452	-0.011
8.453	-0.013
8.454	-0.016
8.455	-0.017
8.456	-0.017
8.457	-0.016
8.458	-0.014
8.459	-0.011
8.46	-0.007
8.461	-0.002
8.462	0.003
8.463	0.007
8.464	0.011
8.465	0.015
8.466	0.017
8.467	0.017
8.468	0.017
8.469	0.015
8.47	0.012
8.471	0.009
8.472	0.005
8.473	0.002
8.474	-0.002
8.475	-0.004
8.476	-0.006
8.477	-0.006
8.478	-0.005
8.479	-0.002
8.48	0.001
8.481	0.005
8.482	0.01
8.483	0.014
8.484	0.017
8.485	0.02
8.486	0.021
8.487	0.02
8.488	0.018
8.489	0.014
8.49	0.009
8.491	0.002
8.492	-0.006
8.493	-0.014
8.494	-0.021
8.495	-0.028
8.496	-0.034
8.497	-0.038
8.498	-0.04
8.499	-0.04
8.5	-0.038
8.501	-0.034
8.502	-0.029
8.503	-0.022
8.504	-0.014
8.505	-0.005
8.506	0.003
8.507	0.011
8.508	0.018
8.509	0.024
8.51	0.028
8.511	0.031
8.512	0.033
8.513	0.034
8.514	0.033
8.515	0.032
8.516	0.029
8.517	0.027
8.518	0.024
8.519	0.021
8.52	0.018
8.521	0.016
8.522	0.013
8.523	0.01
8.524	0.007
8.525	0.005
8.526	0.002
8.527	-0.002
8.528	-0.005
8.529	-0.008
8.53	-0.011
8.531	-0.014
8.532	-0.017
8.533	-0.019
8.534	-0.021
8.535	-0.021
8.536	-0.021
8.537	-0.019
8.538	-0.017
8.539	-0.014
8.54	-0.011
8.541	-0.007
8.542	-0.004
8.543	0
8.544	0.003
8.545	0.005
8.546	0.006
8.547	0.006
8.548	0.005
8.549	0.003
8.55	0
8.551	-0.002
8.552	-0.005
8.553	-0.008
8.554	-0.01
8.555	-0.011
8.556	-0.011
8.557	-0.009
8.558	-0.007
8.559	-0.004
8.56	0
8.561	0.005
8.562	0.01
8.563	0.014
8.564	0.018
8.565	0.021
8.566	0.022
8.567	0.022
8.568	0.021
8.569	0.018
8.57	0.014
8.571	0.009
8.572	0.003
8.573	-0.002
8.574	-0.007
8.575	-0.012
8.576	-0.015
8.577	-0.017
8.578	-0.018
8.579	-0.016
8.58	-0.014
8.581	-0.01
8.582	-0.005
8.583	0.001
8.584	0.007
8.585	0.012
8.586	0.017
8.587	0.021
8.588	0.024
8.589	0.026
8.59	0.027
8.591	0.026
8.592	0.025
8.593	0.023
8.594	0.021
8.595	0.018
8.596	0.016
8.597	0.014
8.598	0.012
8.599	0.012
8.6	0.012
8.601	0.012
8.602	0.013
8.603	0.014
8.604	0.015
8.605	0.016
8.606	0.016
8.607	0.015
8.608	0.014
8.609	0.012
8.61	0.009
8.611	0.006
8.612	0.002
8.613	-0.001
8.614	-0.005
8.615	-0.008
8.616	-0.011
8.617	-0.012
8.618	-0.013
8.619	-0.013
8.62	-0.012
8.621	-0.01
8.622	-0.007
8.623	-0.004
8.624	-0.001
8.625	0.002
8.626	0.004
8.627	0.007
8.628	0.008
8.629	0.009
8.63	0.01
8.631	0.01
8.632	0.01
8.633	0.009
8.634	0.009
8.635	0.009
8.636	0.01
8.637	0.011
8.638	0.012
8.639	0.014
8.64	0.016
8.641	0.019
8.642	0.021
8.643	0.024
8.644	0.026
8.645	0.027
8.646	0.028
8.647	0.028
8.648	0.027
8.649	0.025
8.65	0.023
8.651	0.02
8.652	0.017
8.653	0.014
8.654	0.011
8.655	0.009
8.656	0.008
8.657	0.007
8.658	0.007
8.659	0.008
8.66	0.009
8.661	0.011
8.662	0.013
8.663	0.016
8.664	0.018
8.665	0.019
8.666	0.021
8.667	0.022
8.668	0.022
8.669	0.022
8.67	0.022
8.671	0.021
8.672	0.021
8.673	0.021
8.674	0.021
8.675	0.021
8.676	0.023
8.677	0.025
8.678	0.027
8.679	0.03
8.68	0.033
8.681	0.035
8.682	0.038
8.683	0.04
8.684	0.041
8.685	0.041
8.686	0.04
8.687	0.038
8.688	0.035
8.689	0.031
8.69	0.027
8.691	0.023
8.692	0.02
8.693	0.016
8.694	0.014
8.695	0.012
8.696	0.012
8.697	0.013
8.698	0.014
8.699	0.016
8.7	0.019
8.701	0.021
8.702	0.023
8.703	0.024
8.704	0.024
8.705	0.023
8.706	0.02
8.707	0.016
8.708	0.012
8.709	0.006
8.71	0
8.711	-0.006
8.712	-0.012
8.713	-0.016
8.714	-0.019
8.715	-0.019
8.716	-0.018
8.717	-0.015
8.718	-0.01
8.719	-0.004
8.72	0.003
8.721	0.011
8.722	0.019
8.723	0.026
8.724	0.031
8.725	0.035
8.726	0.036
8.727	0.034
8.728	0.03
8.729	0.024
8.73	0.017
8.731	0.008
8.732	-0.002
8.733	-0.011
8.734	-0.02
8.735	-0.026
8.736	-0.031
8.737	-0.033
8.738	-0.032
8.739	-0.029
8.74	-0.022
8.741	-0.014
8.742	-0.004
8.743	0.007
8.744	0.018
8.745	0.029
8.746	0.039
8.747	0.047
8.748	0.052
8.749	0.056
8.75	0.057
8.751	0.056
8.752	0.053
8.753	0.048
8.754	0.043
8.755	0.037
8.756	0.031
8.757	0.025
8.758	0.021
8.759	0.018
8.76	0.016
8.761	0.015
8.762	0.016
8.763	0.018
8.764	0.02
8.765	0.022
8.766	0.024
8.767	0.026
8.768	0.027
8.769	0.027
8.77	0.026
8.771	0.023
8.772	0.02
8.773	0.017
8.774	0.013
8.775	0.009
8.776	0.005
8.777	0.002
8.778	0
8.779	-0.001
8.78	-0.001
8.781	0
8.782	0.002
8.783	0.004
8.784	0.007
8.785	0.01
8.786	0.012
8.787	0.015
8.788	0.016
8.789	0.018
8.79	0.018
8.791	0.018
8.792	0.018
8.793	0.017
8.794	0.016
8.795	0.015
8.796	0.015
8.797	0.016
8.798	0.016
8.799	0.018
8.8	0.02
8.801	0.023
8.802	0.025
8.803	0.028
8.804	0.03
8.805	0.031
8.806	0.032
8.807	0.032
8.808	0.03
8.809	0.028
8.81	0.024
8.811	0.02
8.812	0.015
8.813	0.01
8.814	0.005
8.815	0
8.816	-0.004
8.817	-0.007
8.818	-0.009
8.819	-0.01
8.82	-0.011
8.821	-0.01
8.822	-0.009
8.823	-0.007
8.824	-0.006
8.825	-0.005
8.826	-0.004
8.827	-0.004
8.828	-0.005
8.829	-0.006
8.83	-0.009
8.831	-0.012
8.832	-0.015
8.833	-0.019
8.834	-0.022
8.835	-0.026
8.836	-0.028
8.837	-0.03
8.838	-0.03
8.839	-0.03
8.84	-0.028
8.841	-0.026
8.842	-0.023
8.843	-0.019
8.844	-0.014
8.845	-0.01
8.846	-0.005
8.847	-0.001
8.848	0.003
8.849	0.007
8.85	0.011
8.851	0.014
8.852	0.017
8.853	0.02
8.854	0.024
8.855	0.027
8.856	0.031
8.857	0.034
8.858	0.038
8.859	0.042
8.86	0.046
8.861	0.05
8.862	0.053
8.863	0.056
8.864	0.057
8.865	0.057
8.866	0.057
8.867	0.055
8.868	0.052
8.869	0.049
8.87	0.045
8.871	0.04
8.872	0.036
8.873	0.032
8.874	0.029
8.875	0.026
8.876	0.025
8.877	0.025
8.878	0.025
8.879	0.027
8.88	0.029
8.881	0.031
8.882	0.033
8.883	0.035
8.884	0.036
8.885	0.037
8.886	0.036
8.887	0.035
8.888	0.033
8.889	0.03
8.89	0.026
8.891	0.023
8.892	0.02
8.893	0.018
8.894	0.016
8.895	0.016
8.896	0.017
8.897	0.019
8.898	0.022
8.899	0.027
8.9	0.031
8.901	0.036
8.902	0.041
8.903	0.044
8.904	0.046
8.905	0.047
8.906	0.045
8.907	0.042
8.908	0.037
8.909	0.031
8.91	0.024
8.911	0.016
8.912	0.008
8.913	0
8.914	-0.006
8.915	-0.01
8.916	-0.013
8.917	-0.013
8.918	-0.011
8.919	-0.007
8.92	-0.001
8.921	0.006
8.922	0.015
8.923	0.023
8.924	0.03
8.925	0.037
8.926	0.041
8.927	0.044
8.928	0.044
8.929	0.041
8.93	0.036
8.931	0.028
8.932	0.018
8.933	0.006
8.934	-0.007
8.935	-0.021
8.936	-0.035
8.937	-0.05
8.938	-0.065
8.939	-0.081
8.94	-0.096
8.941	-0.111
8.942	-0.127
8.943	-0.143
8.944	-0.159
8.945	-0.177
8.946	-0.195
8.947	-0.213
8.948	-0.232
8.949	-0.25
8.95	-0.267
8.951	-0.283
8.952	-0.297
8.953	-0.307
8.954	-0.312
8.955	-0.313
8.956	-0.308
8.957	-0.297
8.958	-0.279
8.959	-0.254
8.96	-0.223
8.961	-0.187
8.962	-0.145
8.963	-0.098
8.964	-0.047
8.965	0.006
8.966	0.06
8.967	0.116
8.968	0.171
8.969	0.225
8.97	0.278
8.971	0.328
8.972	0.376
8.973	0.421
8.974	0.463
8.975	0.501
8.976	0.537
8.977	0.569
8.978	0.598
8.979	0.622
8.98	0.642
8.981	0.659
8.982	0.67
8.983	0.677
8.984	0.678
8.985	0.674
8.986	0.665
8.987	0.65
8.988	0.63
8.989	0.605
8.99	0.575
8.991	0.542
8.992	0.506
8.993	0.468
8.994	0.429
8.995	0.389
8.996	0.351
8.997	0.315
8.998	0.281
8.999	0.251
9	0.224
9.001	0.2
9.002	0.18
9.003	0.163
9.004	0.15
9.005	0.139
9.006	0.129
9.007	0.121
9.008	0.114
9.009	0.107
9.01	0.1
9.011	0.093
9.012	0.084
9.013	0.075
9.014	0.065
9.015	0.055
9.016	0.044
9.017	0.032
9.018	0.021
9.019	0.01
9.02	-0.001
9.021	-0.01
9.022	-0.019
9.023	-0.026
9.024	-0.032
9.025	-0.037
9.026	-0.04
9.027	-0.043
9.028	-0.044
9.029	-0.043
9.03	-0.042
9.031	-0.04
9.032	-0.037
9.033	-0.034
9.034	-0.03
9.035	-0.026
9.036	-0.023
9.037	-0.02
9.038	-0.017
9.039	-0.015
9.04	-0.014
9.041	-0.015
9.042	-0.016
9.043	-0.019
9.044	-0.024
9.045	-0.029
9.046	-0.035
9.047	-0.042
9.048	-0.05
9.049	-0.057
9.05	-0.064
9.051	-0.07
9.052	-0.075
9.053	-0.079
9.054	-0.081
9.055	-0.081
9.056	-0.08
9.057	-0.077
9.058	-0.074
9.059	-0.069
9.06	-0.065
9.061	-0.06
9.062	-0.056
9.063	-0.053
9.064	-0.051
9.065	-0.05
9.066	-0.05
9.067	-0.052
9.068	-0.056
9.069	-0.059
9.07	-0.064
9.071	-0.068
9.072	-0.071
9.073	-0.074
9.074	-0.076
9.075	-0.076
9.076	-0.074
9.077	-0.071
9.078	-0.067
9.079	-0.061
9.08	-0.055
9.081	-0.05
9.082	-0.044
9.083	-0.04
9.084	-0.037
9.085	-0.036
9.086	-0.037
9.087	-0.039
9.088	-0.044
9.089	-0.05
9.09	-0.056
9.091	-0.064
9.092	-0.071
9.093	-0.077
9.094	-0.082
9.095	-0.086
9.096	-0.087
9.097	-0.086
9.098	-0.084
9.099	-0.079
9.1	-0.074
9.101	-0.068
9.102	-0.061
9.103	-0.055
9.104	-0.051
9.105	-0.048
9.106	-0.047
9.107	-0.048
9.108	-0.052
9.109	-0.057
9.11	-0.065
9.111	-0.074
9.112	-0.083
9.113	-0.092
9.114	-0.101
9.115	-0.107
9.116	-0.112
9.117	-0.115
9.118	-0.115
9.119	-0.113
9.12	-0.108
9.121	-0.102
9.122	-0.094
9.123	-0.086
9.124	-0.078
9.125	-0.07
9.126	-0.064
9.127	-0.059
9.128	-0.057
9.129	-0.057
9.13	-0.06
9.131	-0.064
9.132	-0.07
9.133	-0.078
9.134	-0.086
9.135	-0.095
9.136	-0.103
9.137	-0.11
9.138	-0.116
9.139	-0.12
9.14	-0.123
9.141	-0.124
9.142	-0.124
9.143	-0.122
9.144	-0.12
9.145	-0.118
9.146	-0.115
9.147	-0.112
9.148	-0.11
9.149	-0.109
9.15	-0.109
9.151	-0.11
9.152	-0.112
9.153	-0.114
9.154	-0.117
9.155	-0.121
9.156	-0.124
9.157	-0.128
9.158	-0.131
9.159	-0.134
9.16	-0.137
9.161	-0.14
9.162	-0.143
9.163	-0.145
9.164	-0.148
9.165	-0.15
9.166	-0.153
9.167	-0.156
9.168	-0.158
9.169	-0.16
9.17	-0.162
9.171	-0.163
9.172	-0.163
9.173	-0.162
9.174	-0.16
9.175	-0.156
9.176	-0.151
9.177	-0.146
9.178	-0.139
9.179	-0.132
9.18	-0.125
9.181	-0.119
9.182	-0.114
9.183	-0.111
9.184	-0.109
9.185	-0.11
9.186	-0.114
9.187	-0.119
9.188	-0.127
9.189	-0.136
9.19	-0.146
9.191	-0.157
9.192	-0.167
9.193	-0.176
9.194	-0.182
9.195	-0.187
9.196	-0.188
9.197	-0.186
9.198	-0.181
9.199	-0.173
9.2	-0.163
9.201	-0.151
9.202	-0.137
9.203	-0.123
9.204	-0.11
9.205	-0.098
9.206	-0.088
9.207	-0.08
9.208	-0.075
9.209	-0.074
9.21	-0.075
9.211	-0.078
9.212	-0.084
9.213	-0.09
9.214	-0.098
9.215	-0.105
9.216	-0.112
9.217	-0.118
9.218	-0.122
9.219	-0.124
9.22	-0.124
9.221	-0.122
9.222	-0.118
9.223	-0.113
9.224	-0.108
9.225	-0.102
9.226	-0.097
9.227	-0.093
9.228	-0.089
9.229	-0.087
9.23	-0.086
9.231	-0.086
9.232	-0.087
9.233	-0.088
9.234	-0.09
9.235	-0.092
9.236	-0.093
9.237	-0.093
9.238	-0.091
9.239	-0.088
9.24	-0.084
9.241	-0.078
9.242	-0.072
9.243	-0.064
9.244	-0.056
9.245	-0.049
9.246	-0.042
9.247	-0.035
9.248	-0.03
9.249	-0.026
9.25	-0.024
9.251	-0.023
9.252	-0.022
9.253	-0.023
9.254	-0.024
9.255	-0.025
9.256	-0.026
9.257	-0.026
9.258	-0.026
9.259	-0.025
9.26	-0.023
9.261	-0.021
9.262	-0.018
9.263	-0.014
9.264	-0.011
9.265	-0.008
9.266	-0.006
9.267	-0.005
9.268	-0.005
9.269	-0.006
9.27	-0.008
9.271	-0.011
9.272	-0.014
9.273	-0.018
9.274	-0.022
9.275	-0.025
9.276	-0.028
9.277	-0.029
9.278	-0.029
9.279	-0.028
9.28	-0.025
9.281	-0.021
9.282	-0.016
9.283	-0.01
9.284	-0.004
9.285	0.003
9.286	0.009
9.287	0.016
9.288	0.021
9.289	0.026
9.29	0.03
9.291	0.034
9.292	0.036
9.293	0.038
9.294	0.04
9.295	0.041
9.296	0.043
9.297	0.044
9.298	0.045
9.299	0.047
9.3	0.048
9.301	0.049
9.302	0.05
9.303	0.05
9.304	0.05
9.305	0.049
9.306	0.047
9.307	0.044
9.308	0.04
9.309	0.035
9.31	0.03
9.311	0.025
9.312	0.02
9.313	0.016
9.314	0.013
9.315	0.011
9.316	0.01
9.317	0.011
9.318	0.013
9.319	0.017
9.32	0.022
9.321	0.028
9.322	0.034
9.323	0.041
9.324	0.047
9.325	0.052
9.326	0.057
9.327	0.061
9.328	0.064
9.329	0.065
9.33	0.065
9.331	0.065
9.332	0.064
9.333	0.064
9.334	0.063
9.335	0.062
9.336	0.063
9.337	0.064
9.338	0.065
9.339	0.068
9.34	0.07
9.341	0.073
9.342	0.075
9.343	0.077
9.344	0.078
9.345	0.077
9.346	0.075
9.347	0.072
9.348	0.068
9.349	0.062
9.35	0.056
9.351	0.049
9.352	0.042
9.353	0.036
9.354	0.03
9.355	0.026
9.356	0.024
9.357	0.023
9.358	0.024
9.359	0.027
9.36	0.03
9.361	0.035
9.362	0.04
9.363	0.044
9.364	0.048
9.365	0.05
9.366	0.051
9.367	0.05
9.368	0.047
9.369	0.042
9.37	0.037
9.371	0.03
9.372	0.022
9.373	0.015
9.374	0.009
9.375	0.004
9.376	0.001
9.377	0
9.378	0.001
9.379	0.004
9.38	0.01
9.381	0.017
9.382	0.025
9.383	0.034
9.384	0.042
9.385	0.05
9.386	0.056
9.387	0.06
9.388	0.062
9.389	0.062
9.39	0.059
9.391	0.054
9.392	0.048
9.393	0.04
9.394	0.032
9.395	0.024
9.396	0.016
9.397	0.01
9.398	0.005
9.399	0.002
9.4	0.001
9.401	0.001
9.402	0.003
9.403	0.007
9.404	0.011
9.405	0.016
9.406	0.02
9.407	0.024
9.408	0.027
9.409	0.029
9.41	0.029
9.411	0.028
9.412	0.025
9.413	0.021
9.414	0.017
9.415	0.012
9.416	0.007
9.417	0.002
9.418	-0.002
9.419	-0.006
9.42	-0.009
9.421	-0.011
9.422	-0.012
9.423	-0.013
9.424	-0.013
9.425	-0.013
9.426	-0.014
9.427	-0.014
9.428	-0.015
9.429	-0.016
9.43	-0.017
9.431	-0.019
9.432	-0.02
9.433	-0.022
9.434	-0.024
9.435	-0.025
9.436	-0.025
9.437	-0.025
9.438	-0.025
9.439	-0.023
9.44	-0.022
9.441	-0.02
9.442	-0.017
9.443	-0.016
9.444	-0.014
9.445	-0.013
9.446	-0.014
9.447	-0.015
9.448	-0.017
9.449	-0.02
9.45	-0.024
9.451	-0.028
9.452	-0.032
9.453	-0.035
9.454	-0.038
9.455	-0.04
9.456	-0.04
9.457	-0.039
9.458	-0.036
9.459	-0.032
9.46	-0.026
9.461	-0.02
9.462	-0.013
9.463	-0.006
9.464	0.001
9.465	0.006
9.466	0.011
9.467	0.013
9.468	0.014
9.469	0.014
9.47	0.011
9.471	0.008
9.472	0.003
9.473	-0.002
9.474	-0.007
9.475	-0.011
9.476	-0.015
9.477	-0.018
9.478	-0.019
9.479	-0.018
9.48	-0.016
9.481	-0.013
9.482	-0.008
9.483	-0.003
9.484	0.002
9.485	0.008
9.486	0.012
9.487	0.016
9.488	0.019
9.489	0.02
9.49	0.02
9.491	0.019
9.492	0.016
9.493	0.013
9.494	0.009
9.495	0.005
9.496	0.002
9.497	-0.001
9.498	-0.003
9.499	-0.004
9.5	-0.004
9.501	-0.003
9.502	-0.002
9.503	0
9.504	0.003
9.505	0.005
9.506	0.007
9.507	0.009
9.508	0.01
9.509	0.01
9.51	0.009
9.511	0.007
9.512	0.005
9.513	0.002
9.514	0
9.515	-0.003
9.516	-0.005
9.517	-0.006
9.518	-0.006
9.519	-0.006
9.52	-0.004
9.521	-0.001
9.522	0.002
9.523	0.006
9.524	0.01
9.525	0.013
9.526	0.017
9.527	0.02
9.528	0.022
9.529	0.023
9.53	0.024
9.531	0.023
9.532	0.022
9.533	0.021
9.534	0.019
9.535	0.017
9.536	0.015
9.537	0.014
9.538	0.013
9.539	0.013
9.54	0.013
9.541	0.014
9.542	0.015
9.543	0.016
9.544	0.017
9.545	0.018
9.546	0.019
9.547	0.019
9.548	0.018
9.549	0.017
9.55	0.016
9.551	0.014
9.552	0.011
9.553	0.009
9.554	0.007
9.555	0.005
9.556	0.003
9.557	0.002
9.558	0.002
9.559	0.002
9.56	0.003
9.561	0.004
9.562	0.005
9.563	0.007
9.564	0.009
9.565	0.01
9.566	0.011
9.567	0.012
9.568	0.013
9.569	0.013
9.57	0.013
9.571	0.013
9.572	0.013
9.573	0.013
9.574	0.014
9.575	0.015
9.576	0.017
9.577	0.019
9.578	0.022
9.579	0.025
9.58	0.028
9.581	0.031
9.582	0.033
9.583	0.035
9.584	0.035
9.585	0.035
9.586	0.033
9.587	0.03
9.588	0.026
9.589	0.022
9.59	0.017
9.591	0.012
9.592	0.008
9.593	0.004
9.594	0.001
9.595	0
9.596	0
9.597	0.002
9.598	0.006
9.599	0.01
9.6	0.016
9.601	0.022
9.602	0.028
9.603	0.033
9.604	0.038
9.605	0.042
9.606	0.044
9.607	0.045
9.608	0.044
9.609	0.042
9.61	0.038
9.611	0.034
9.612	0.029
9.613	0.023
9.614	0.018
9.615	0.013
9.616	0.01
9.617	0.007
9.618	0.006
9.619	0.006
9.62	0.007
9.621	0.008
9.622	0.01
9.623	0.012
9.624	0.014
9.625	0.016
9.626	0.016
9.627	0.016
9.628	0.015
9.629	0.014
9.63	0.011
9.631	0.009
9.632	0.006
9.633	0.004
9.634	0.003
9.635	0.003
9.636	0.003
9.637	0.005
9.638	0.008
9.639	0.012
9.64	0.016
9.641	0.021
9.642	0.025
9.643	0.029
9.644	0.031
9.645	0.031
9.646	0.03
9.647	0.027
9.648	0.023
9.649	0.017
9.65	0.009
9.651	0.001
9.652	-0.007
9.653	-0.015
9.654	-0.021
9.655	-0.026
9.656	-0.029
9.657	-0.029
9.658	-0.028
9.659	-0.024
9.66	-0.018
9.661	-0.011
9.662	-0.003
9.663	0.006
9.664	0.014
9.665	0.021
9.666	0.026
9.667	0.029
9.668	0.031
9.669	0.03
9.67	0.027
9.671	0.023
9.672	0.018
9.673	0.012
9.674	0.006
9.675	0.001
9.676	-0.003
9.677	-0.005
9.678	-0.005
9.679	-0.002
9.68	0.002
9.681	0.008
9.682	0.016
9.683	0.025
9.684	0.033
9.685	0.042
9.686	0.05
9.687	0.056
9.688	0.06
9.689	0.063
9.69	0.063
9.691	0.06
9.692	0.057
9.693	0.051
9.694	0.045
9.695	0.037
9.696	0.03
9.697	0.024
9.698	0.018
9.699	0.014
9.7	0.01
9.701	0.008
9.702	0.008
9.703	0.008
9.704	0.009
9.705	0.01
9.706	0.011
9.707	0.012
9.708	0.013
9.709	0.012
9.71	0.012
9.711	0.01
9.712	0.008
9.713	0.006
9.714	0.004
9.715	0.003
9.716	0.002
9.717	0.003
9.718	0.005
9.719	0.008
9.72	0.011
9.721	0.016
9.722	0.022
9.723	0.027
9.724	0.032
9.725	0.036
9.726	0.039
9.727	0.04
9.728	0.039
9.729	0.036
9.73	0.031
9.731	0.024
9.732	0.016
9.733	0.007
9.734	-0.003
9.735	-0.012
9.736	-0.021
9.737	-0.028
9.738	-0.033
9.739	-0.036
9.74	-0.037
9.741	-0.035
9.742	-0.03
9.743	-0.024
9.744	-0.016
9.745	-0.006
9.746	0.004
9.747	0.013
9.748	0.022
9.749	0.03
9.75	0.037
9.751	0.041
9.752	0.044
9.753	0.045
9.754	0.043
9.755	0.041
9.756	0.037
9.757	0.032
9.758	0.027
9.759	0.022
9.76	0.017
9.761	0.013
9.762	0.01
9.763	0.009
9.764	0.008
9.765	0.008
9.766	0.009
9.767	0.011
9.768	0.013
9.769	0.016
9.77	0.019
9.771	0.021
9.772	0.024
9.773	0.026
9.774	0.027
9.775	0.028
9.776	0.028
9.777	0.028
9.778	0.027
9.779	0.025
9.78	0.024
9.781	0.021
9.782	0.018
9.783	0.016
9.784	0.013
9.785	0.01
9.786	0.007
9.787	0.004
9.788	0.002
9.789	0
9.79	-0.001
9.791	-0.002
9.792	-0.001
9.793	0
9.794	0.002
9.795	0.005
9.796	0.009
9.797	0.012
9.798	0.016
9.799	0.02
9.8	0.024
9.801	0.026
9.802	0.028
9.803	0.028
9.804	0.027
9.805	0.025
9.806	0.021
9.807	0.015
9.808	0.009
9.809	0.002
9.81	-0.005
9.811	-0.011
9.812	-0.017
9.813	-0.022
9.814	-0.025
9.815	-0.026
9.816	-0.026
9.817	-0.023
9.818	-0.019
9.819	-0.013
9.82	-0.007
9.821	0
9.822	0.007
9.823	0.013
9.824	0.018
9.825	0.022
9.826	0.023
9.827	0.022
9.828	0.019
9.829	0.015
9.83	0.009
9.831	0.001
9.832	-0.007
9.833	-0.015
9.834	-0.022
9.835	-0.028
9.836	-0.033
9.837	-0.036
9.838	-0.037
9.839	-0.036
9.84	-0.034
9.841	-0.03
9.842	-0.025
9.843	-0.021
9.844	-0.016
9.845	-0.012
9.846	-0.009
9.847	-0.008
9.848	-0.009
9.849	-0.011
9.85	-0.015
9.851	-0.019
9.852	-0.025
9.853	-0.031
9.854	-0.036
9.855	-0.041
9.856	-0.044
9.857	-0.045
9.858	-0.044
9.859	-0.041
9.86	-0.037
9.861	-0.03
9.862	-0.023
9.863	-0.014
9.864	-0.006
9.865	0.002
9.866	0.009
9.867	0.015
9.868	0.019
9.869	0.021
9.87	0.021
9.871	0.019
9.872	0.015
9.873	0.011
9.874	0.006
9.875	0.001
9.876	-0.003
9.877	-0.006
9.878	-0.008
9.879	-0.008
9.88	-0.006
9.881	-0.003
9.882	0.002
9.883	0.008
9.884	0.015
9.885	0.021
9.886	0.028
9.887	0.033
9.888	0.037
9.889	0.04
9.89	0.041
9.891	0.041
9.892	0.039
