0	0
0.001	-0.002
0.002	-0.009
0.003	-0.018
0.004	-0.024
0.005	-0.021
0.006	-0.013
0.007	-0.007
0.008	-0.009
0.009	-0.019
0.01	-0.036
0.011	-0.056
0.012	-0.07
0.013	-0.076
0.014	-0.076
0.015	-0.073
0.016	-0.069
0.017	-0.058
0.018	-0.042
0.019	-0.024
0.02	-0.007
0.021	0.012
0.022	0.03
0.023	0.042
0.024	0.044
0.025	0.034
0.026	0.011
0.027	-0.02
0.028	-0.048
0.029	-0.059
0.03	-0.055
0.031	-0.051
0.032	-0.056
0.033	-0.064
0.034	-0.062
0.035	-0.048
0.036	-0.03
0.037	-0.015
0.038	0.006
0.039	0.039
0.04	0.077
0.041	0.107
0.042	0.119
0.043	0.112
0.044	0.092
0.045	0.063
0.046	0.023
0.047	-0.019
0.048	-0.052
0.049	-0.067
0.05	-0.069
0.051	-0.068
0.052	-0.068
0.053	-0.067
0.054	-0.057
0.055	-0.033
0.056	0.004
0.057	0.04
0.058	0.059
0.059	0.062
0.06	0.066
0.061	0.083
0.062	0.107
0.063	0.123
0.064	0.123
0.065	0.106
0.066	0.082
0.067	0.054
0.068	0.025
0.069	-0.005
0.07	-0.031
0.071	-0.049
0.072	-0.059
0.073	-0.063
0.074	-0.065
0.075	-0.064
0.076	-0.052
0.077	-0.021
0.078	0.024
0.079	0.066
0.08	0.093
0.081	0.108
0.082	0.116
0.083	0.116
0.084	0.105
0.085	0.087
0.086	0.071
0.087	0.063
0.088	0.059
0.089	0.046
0.09	0.017
0.091	-0.019
0.092	-0.045
0.093	-0.052
0.094	-0.045
0.095	-0.035
0.096	-0.034
0.097	-0.036
0.098	-0.029
0.099	-0.004
0.1	0.032
0.101	0.065
0.102	0.091
0.103	0.104
0.104	0.1
0.105	0.077
0.106	0.044
0.107	0.012
0.108	-0.015
0.109	-0.037
0.11	-0.052
0.111	-0.06
0.112	-0.061
0.113	-0.061
0.114	-0.061
0.115	-0.05
0.116	-0.026
0.117	0.002
0.118	0.021
0.119	0.031
0.12	0.035
0.121	0.038
0.122	0.047
0.123	0.063
0.124	0.077
0.125	0.074
0.126	0.051
0.127	0.015
0.128	-0.017
0.129	-0.039
0.13	-0.056
0.131	-0.073
0.132	-0.092
0.133	-0.106
0.134	-0.105
0.135	-0.088
0.136	-0.062
0.137	-0.042
0.138	-0.031
0.139	-0.022
0.14	-0.005
0.141	0.016
0.142	0.036
0.143	0.048
0.144	0.051
0.145	0.045
0.146	0.031
0.147	0.01
0.148	-0.014
0.149	-0.038
0.15	-0.059
0.151	-0.071
0.152	-0.072
0.153	-0.061
0.154	-0.041
0.155	-0.016
0.156	0.009
0.157	0.026
0.158	0.027
0.159	0.014
0.16	-0.001
0.161	-0.01
0.162	-0.014
0.163	-0.015
0.164	-0.016
0.165	-0.017
0.166	-0.023
0.167	-0.033
0.168	-0.046
0.169	-0.059
0.17	-0.064
0.171	-0.059
0.172	-0.049
0.173	-0.039
0.174	-0.036
0.175	-0.039
0.176	-0.041
0.177	-0.037
0.178	-0.024
0.179	-0.003
0.18	0.024
0.181	0.048
0.182	0.063
0.183	0.061
0.184	0.043
0.185	0.014
0.186	-0.019
0.187	-0.052
0.188	-0.08
0.189	-0.098
0.19	-0.104
0.191	-0.106
0.192	-0.111
0.193	-0.118
0.194	-0.12
0.195	-0.111
0.196	-0.09
0.197	-0.06
0.198	-0.021
0.199	0.021
0.2	0.059
0.201	0.085
0.202	0.095
0.203	0.088
0.204	0.07
0.205	0.044
0.206	0.014
0.207	-0.012
0.208	-0.028
0.209	-0.034
0.21	-0.039
0.211	-0.045
0.212	-0.053
0.213	-0.059
0.214	-0.062
0.215	-0.059
0.216	-0.049
0.217	-0.032
0.218	-0.012
0.219	0.009
0.22	0.025
0.221	0.033
0.222	0.031
0.223	0.024
0.224	0.02
0.225	0.018
0.226	0.018
0.227	0.016
0.228	0.009
0.229	-0.005
0.23	-0.029
0.231	-0.057
0.232	-0.078
0.233	-0.084
0.234	-0.08
0.235	-0.074
0.236	-0.071
0.237	-0.067
0.238	-0.054
0.239	-0.033
0.24	-0.007
0.241	0.015
0.242	0.03
0.243	0.04
0.244	0.043
0.245	0.036
0.246	0.014
0.247	-0.02
0.248	-0.058
0.249	-0.086
0.25	-0.094
0.251	-0.081
0.252	-0.063
0.253	-0.055
0.254	-0.057
0.255	-0.051
0.256	-0.031
0.257	-0.007
0.258	0.008
0.259	0.018
0.26	0.034
0.261	0.056
0.262	0.07
0.263	0.069
0.264	0.054
0.265	0.03
0.266	0.003
0.267	-0.022
0.268	-0.044
0.269	-0.061
0.27	-0.072
0.271	-0.076
0.272	-0.078
0.273	-0.079
0.274	-0.078
0.275	-0.074
0.276	-0.066
0.277	-0.053
0.278	-0.032
0.279	-0.002
0.28	0.029
0.281	0.05
0.282	0.059
0.283	0.058
0.284	0.05
0.285	0.034
0.286	0.013
0.287	-0.012
0.288	-0.041
0.289	-0.073
0.29	-0.099
0.291	-0.105
0.292	-0.089
0.293	-0.065
0.294	-0.049
0.295	-0.042
0.296	-0.036
0.297	-0.023
0.298	-0.001
0.299	0.026
0.3	0.053
0.301	0.072
0.302	0.08
0.303	0.075
0.304	0.06
0.305	0.044
0.306	0.03
0.307	0.015
0.308	-0.007
0.309	-0.038
0.31	-0.07
0.311	-0.09
0.312	-0.089
0.313	-0.071
0.314	-0.05
0.315	-0.038
0.316	-0.037
0.317	-0.035
0.318	-0.022
0.319	0.004
0.32	0.035
0.321	0.056
0.322	0.058
0.323	0.043
0.324	0.025
0.325	0.018
0.326	0.019
0.327	0.014
0.328	-0.007
0.329	-0.04
0.33	-0.072
0.331	-0.092
0.332	-0.099
0.333	-0.099
0.334	-0.094
0.335	-0.087
0.336	-0.073
0.337	-0.048
0.338	-0.015
0.339	0.015
0.34	0.028
0.341	0.023
0.342	0.007
0.343	-0.006
0.344	-0.009
0.345	-0.006
0.346	-0.009
0.347	-0.026
0.348	-0.052
0.349	-0.075
0.35	-0.087
0.351	-0.091
0.352	-0.089
0.353	-0.081
0.354	-0.068
0.355	-0.057
0.356	-0.052
0.357	-0.054
0.358	-0.055
0.359	-0.048
0.36	-0.033
0.361	-0.009
0.362	0.021
0.363	0.055
0.364	0.08
0.365	0.081
0.366	0.057
0.367	0.017
0.368	-0.024
0.369	-0.056
0.37	-0.074
0.371	-0.081
0.372	-0.085
0.373	-0.087
0.374	-0.083
0.375	-0.071
0.376	-0.053
0.377	-0.034
0.378	-0.015
0.379	0.001
0.38	0.015
0.381	0.032
0.382	0.048
0.383	0.056
0.384	0.048
0.385	0.025
0.386	-0.01
0.387	-0.048
0.388	-0.077
0.389	-0.089
0.39	-0.085
0.391	-0.073
0.392	-0.064
0.393	-0.061
0.394	-0.059
0.395	-0.049
0.396	-0.029
0.397	-0.003
0.398	0.023
0.399	0.038
0.4	0.036
0.401	0.02
0.402	0.002
0.403	-0.003
0.404	0.007
0.405	0.023
0.406	0.036
0.407	0.039
0.408	0.028
0.409	0.004
0.41	-0.029
0.411	-0.062
0.412	-0.086
0.413	-0.1
0.414	-0.106
0.415	-0.101
0.416	-0.082
0.417	-0.053
0.418	-0.02
0.419	0.012
0.42	0.041
0.421	0.069
0.422	0.091
0.423	0.097
0.424	0.085
0.425	0.064
0.426	0.046
0.427	0.03
0.428	0.013
0.429	-0.006
0.43	-0.016
0.431	-0.019
0.432	-0.022
0.433	-0.034
0.434	-0.052
0.435	-0.062
0.436	-0.056
0.437	-0.034
0.438	-0.005
0.439	0.021
0.44	0.039
0.441	0.051
0.442	0.056
0.443	0.05
0.444	0.032
0.445	0.008
0.446	-0.013
0.447	-0.024
0.448	-0.02
0.449	-0.012
0.45	-0.01
0.451	-0.019
0.452	-0.033
0.453	-0.042
0.454	-0.043
0.455	-0.041
0.456	-0.043
0.457	-0.051
0.458	-0.052
0.459	-0.034
0.46	0.004
0.461	0.05
0.462	0.085
0.463	0.096
0.464	0.083
0.465	0.054
0.466	0.022
0.467	-0.003
0.468	-0.017
0.469	-0.021
0.47	-0.024
0.471	-0.028
0.472	-0.033
0.473	-0.037
0.474	-0.037
0.475	-0.029
0.476	-0.014
0.477	0.008
0.478	0.028
0.479	0.044
0.48	0.054
0.481	0.059
0.482	0.064
0.483	0.074
0.484	0.092
0.485	0.106
0.486	0.098
0.487	0.067
0.488	0.029
0.489	0.001
0.49	-0.017
0.491	-0.034
0.492	-0.051
0.493	-0.063
0.494	-0.067
0.495	-0.062
0.496	-0.047
0.497	-0.027
0.498	-0.004
0.499	0.019
0.5	0.042
0.501	0.061
0.502	0.074
0.503	0.077
0.504	0.072
0.505	0.056
0.506	0.029
0.507	-0.009
0.508	-0.048
0.509	-0.075
0.51	-0.088
0.511	-0.092
0.512	-0.091
0.513	-0.085
0.514	-0.069
0.515	-0.045
0.516	-0.017
0.517	0.014
0.518	0.044
0.519	0.068
0.52	0.077
0.521	0.075
0.522	0.069
0.523	0.064
0.524	0.054
0.525	0.034
0.526	0.011
0.527	-0.007
0.528	-0.015
0.529	-0.02
0.53	-0.03
0.531	-0.05
0.532	-0.07
0.533	-0.078
0.534	-0.069
0.535	-0.047
0.536	-0.026
0.537	-0.009
0.538	0.01
0.539	0.036
0.54	0.064
0.541	0.082
0.542	0.087
0.543	0.083
0.544	0.076
0.545	0.065
0.546	0.047
0.547	0.023
0.548	-0.001
0.549	-0.023
0.55	-0.044
0.551	-0.069
0.552	-0.091
0.553	-0.105
0.554	-0.109
0.555	-0.112
0.556	-0.114
0.557	-0.105
0.558	-0.074
0.559	-0.027
0.56	0.019
0.561	0.053
0.562	0.071
0.563	0.072
0.564	0.059
0.565	0.036
0.566	0.006
0.567	-0.024
0.568	-0.048
0.569	-0.062
0.57	-0.068
0.571	-0.072
0.572	-0.077
0.573	-0.084
0.574	-0.089
0.575	-0.084
0.576	-0.064
0.577	-0.032
0.578	0.002
0.579	0.027
0.58	0.035
0.581	0.033
0.582	0.031
0.583	0.039
0.584	0.053
0.585	0.063
0.586	0.057
0.587	0.036
0.588	0.007
0.589	-0.027
0.59	-0.064
0.591	-0.099
0.592	-0.122
0.593	-0.124
0.594	-0.107
0.595	-0.078
0.596	-0.046
0.597	-0.015
0.598	0.016
0.599	0.047
0.6	0.074
0.601	0.09
0.602	0.091
0.603	0.08
0.604	0.067
0.605	0.058
0.606	0.053
0.607	0.042
0.608	0.022
0.609	-0.002
0.61	-0.023
0.611	-0.036
0.612	-0.042
0.613	-0.047
0.614	-0.051
0.615	-0.054
0.616	-0.048
0.617	-0.026
0.618	0.014
0.619	0.061
0.62	0.094
0.621	0.1
0.622	0.081
0.623	0.057
0.624	0.043
0.625	0.043
0.626	0.054
0.627	0.064
0.628	0.058
0.629	0.029
0.63	-0.007
0.631	-0.032
0.632	-0.04
0.633	-0.041
0.634	-0.043
0.635	-0.042
0.636	-0.026
0.637	0.004
0.638	0.035
0.639	0.06
0.64	0.079
0.641	0.099
0.642	0.114
0.643	0.12
0.644	0.114
0.645	0.099
0.646	0.077
0.647	0.045
0.648	0.007
0.649	-0.028
0.65	-0.054
0.651	-0.067
0.652	-0.07
0.653	-0.065
0.654	-0.054
0.655	-0.039
0.656	-0.022
0.657	-0.003
0.658	0.015
0.659	0.029
0.66	0.038
0.661	0.046
0.662	0.054
0.663	0.059
0.664	0.057
0.665	0.046
0.666	0.03
0.667	0.007
0.668	-0.027
0.669	-0.068
0.67	-0.111
0.671	-0.15
0.672	-0.183
0.673	-0.2
0.674	-0.197
0.675	-0.178
0.676	-0.155
0.677	-0.148
0.678	-0.163
0.679	-0.193
0.68	-0.219
0.681	-0.228
0.682	-0.224
0.683	-0.218
0.684	-0.218
0.685	-0.225
0.686	-0.241
0.687	-0.263
0.688	-0.289
0.689	-0.314
0.69	-0.333
0.691	-0.341
0.692	-0.331
0.693	-0.295
0.694	-0.237
0.695	-0.165
0.696	-0.089
0.697	-0.009
0.698	0.079
0.699	0.17
0.7	0.252
0.701	0.32
0.702	0.377
0.703	0.424
0.704	0.461
0.705	0.491
0.706	0.523
0.707	0.56
0.708	0.595
0.709	0.622
0.71	0.639
0.711	0.65
0.712	0.66
0.713	0.667
0.714	0.675
0.715	0.687
0.716	0.707
0.717	0.733
0.718	0.76
0.719	0.779
0.72	0.784
0.721	0.767
0.722	0.726
0.723	0.669
0.724	0.608
0.725	0.546
0.726	0.486
0.727	0.427
0.728	0.372
0.729	0.325
0.73	0.288
0.731	0.261
0.732	0.239
0.733	0.216
0.734	0.193
0.735	0.177
0.736	0.173
0.737	0.175
0.738	0.178
0.739	0.176
0.74	0.171
0.741	0.165
0.742	0.162
0.743	0.158
0.744	0.145
0.745	0.12
0.746	0.086
0.747	0.047
0.748	0.009
0.749	-0.02
0.75	-0.037
0.751	-0.05
0.752	-0.071
0.753	-0.097
0.754	-0.116
0.755	-0.117
0.756	-0.105
0.757	-0.087
0.758	-0.058
0.759	-0.017
0.76	0.027
0.761	0.059
0.762	0.072
0.763	0.069
0.764	0.057
0.765	0.036
0.766	0.011
0.767	-0.011
0.768	-0.024
0.769	-0.031
0.77	-0.042
0.771	-0.062
0.772	-0.089
0.773	-0.11
0.774	-0.12
0.775	-0.111
0.776	-0.085
0.777	-0.051
0.778	-0.026
0.779	-0.019
0.78	-0.024
0.781	-0.029
0.782	-0.025
0.783	-0.013
0.784	0.002
0.785	0.014
0.786	0.014
0.787	-0.001
0.788	-0.029
0.789	-0.059
0.79	-0.082
0.791	-0.099
0.792	-0.115
0.793	-0.128
0.794	-0.132
0.795	-0.127
0.796	-0.118
0.797	-0.105
0.798	-0.084
0.799	-0.052
0.8	-0.019
0.801	0.006
0.802	0.02
0.803	0.022
0.804	0.013
0.805	-0.008
0.806	-0.04
0.807	-0.078
0.808	-0.113
0.809	-0.136
0.81	-0.147
0.811	-0.148
0.812	-0.144
0.813	-0.142
0.814	-0.14
0.815	-0.135
0.816	-0.125
0.817	-0.11
0.818	-0.09
0.819	-0.066
0.82	-0.042
0.821	-0.026
0.822	-0.023
0.823	-0.029
0.824	-0.037
0.825	-0.041
0.826	-0.042
0.827	-0.043
0.828	-0.048
0.829	-0.058
0.83	-0.074
0.831	-0.091
0.832	-0.106
0.833	-0.119
0.834	-0.129
0.835	-0.131
0.836	-0.124
0.837	-0.111
0.838	-0.095
0.839	-0.08
0.84	-0.07
0.841	-0.065
0.842	-0.064
0.843	-0.062
0.844	-0.055
0.845	-0.047
0.846	-0.051
0.847	-0.071
0.848	-0.097
0.849	-0.116
0.85	-0.125
0.851	-0.13
0.852	-0.138
0.853	-0.146
0.854	-0.148
0.855	-0.137
0.856	-0.119
0.857	-0.105
0.858	-0.1
0.859	-0.096
0.86	-0.086
0.861	-0.069
0.862	-0.054
0.863	-0.049
0.864	-0.054
0.865	-0.066
0.866	-0.078
0.867	-0.086
0.868	-0.091
0.869	-0.1
0.87	-0.116
0.871	-0.141
0.872	-0.169
0.873	-0.195
0.874	-0.211
0.875	-0.216
0.876	-0.209
0.877	-0.191
0.878	-0.163
0.879	-0.129
0.88	-0.095
0.881	-0.063
0.882	-0.039
0.883	-0.028
0.884	-0.034
0.885	-0.055
0.886	-0.083
0.887	-0.107
0.888	-0.121
0.889	-0.129
0.89	-0.136
0.891	-0.146
0.892	-0.162
0.893	-0.182
0.894	-0.199
0.895	-0.208
0.896	-0.206
0.897	-0.196
0.898	-0.179
0.899	-0.155
0.9	-0.128
0.901	-0.102
0.902	-0.083
0.903	-0.079
0.904	-0.089
0.905	-0.1
0.906	-0.103
0.907	-0.1
0.908	-0.107
0.909	-0.13
0.91	-0.161
0.911	-0.186
0.912	-0.204
0.913	-0.215
0.914	-0.217
0.915	-0.208
0.916	-0.187
0.917	-0.161
0.918	-0.136
0.919	-0.112
0.92	-0.089
0.921	-0.069
0.922	-0.051
0.923	-0.04
0.924	-0.039
0.925	-0.049
0.926	-0.066
0.927	-0.089
0.928	-0.117
0.929	-0.149
0.93	-0.181
0.931	-0.207
0.932	-0.223
0.933	-0.226
0.934	-0.218
0.935	-0.198
0.936	-0.168
0.937	-0.134
0.938	-0.099
0.939	-0.068
0.94	-0.039
0.941	-0.017
0.942	-0.006
0.943	-0.006
0.944	-0.015
0.945	-0.028
0.946	-0.042
0.947	-0.056
0.948	-0.073
0.949	-0.098
0.95	-0.133
0.951	-0.173
0.952	-0.205
0.953	-0.217
0.954	-0.211
0.955	-0.199
0.956	-0.186
0.957	-0.167
0.958	-0.136
0.959	-0.096
0.96	-0.059
0.961	-0.035
0.962	-0.022
0.963	-0.013
0.964	-0.002
0.965	0.004
0.966	-0.002
0.967	-0.022
0.968	-0.047
0.969	-0.069
0.97	-0.087
0.971	-0.104
0.972	-0.116
0.973	-0.119
0.974	-0.117
0.975	-0.11
0.976	-0.096
0.977	-0.071
0.978	-0.04
0.979	-0.01
0.98	0.016
0.981	0.037
0.982	0.051
0.983	0.058
0.984	0.055
0.985	0.043
0.986	0.023
0.987	0.003
0.988	-0.011
0.989	-0.021
0.99	-0.034
0.991	-0.052
0.992	-0.067
0.993	-0.069
0.994	-0.058
0.995	-0.041
0.996	-0.021
0.997	0.002
0.998	0.027
0.999	0.049
1	0.06
1.001	0.061
1.002	0.06
1.003	0.061
1.004	0.06
1.005	0.05
1.006	0.029
1.007	0.005
1.008	-0.016
1.009	-0.034
1.01	-0.05
1.011	-0.063
1.012	-0.071
1.013	-0.074
1.014	-0.066
1.015	-0.044
1.016	-0.01
1.017	0.027
1.018	0.06
1.019	0.09
1.02	0.117
1.021	0.135
1.022	0.135
1.023	0.119
1.024	0.095
1.025	0.072
1.026	0.056
1.027	0.045
1.028	0.035
1.029	0.022
1.03	0.007
1.031	-0.006
1.032	-0.018
1.033	-0.03
1.034	-0.04
1.035	-0.043
1.036	-0.034
1.037	-0.011
1.038	0.024
1.039	0.063
1.04	0.091
1.041	0.101
1.042	0.103
1.043	0.109
1.044	0.122
1.045	0.128
1.046	0.119
1.047	0.094
1.048	0.059
1.049	0.021
1.05	-0.012
1.051	-0.031
1.052	-0.037
1.053	-0.03
1.054	-0.016
1.055	-0.001
1.056	0.012
1.057	0.028
1.058	0.051
1.059	0.078
1.06	0.102
1.061	0.115
1.062	0.117
1.063	0.113
1.064	0.11
1.065	0.108
1.066	0.103
1.067	0.089
1.068	0.063
1.069	0.034
1.07	0.011
1.071	-0.003
1.072	-0.01
1.073	-0.012
1.074	-0.007
1.075	0.006
1.076	0.02
1.077	0.031
1.078	0.04
1.079	0.052
1.08	0.073
1.081	0.099
1.082	0.119
1.083	0.129
1.084	0.126
1.085	0.11
1.086	0.086
1.087	0.061
1.088	0.042
1.089	0.023
1.09	0
1.091	-0.024
1.092	-0.045
1.093	-0.06
1.094	-0.067
1.095	-0.06
1.096	-0.039
1.097	-0.016
1.098	0.001
1.099	0.012
1.1	0.029
1.101	0.059
1.102	0.094
1.103	0.117
1.104	0.115
1.105	0.091
1.106	0.059
1.107	0.037
1.108	0.027
1.109	0.018
1.11	0.004
1.111	-0.015
1.112	-0.031
1.113	-0.04
1.114	-0.045
1.115	-0.046
1.116	-0.038
1.117	-0.017
1.118	0.01
1.119	0.036
1.12	0.056
1.121	0.072
1.122	0.087
1.123	0.097
1.124	0.092
1.125	0.066
1.126	0.031
1.127	0.006
1.128	-0.003
1.129	-0.005
1.13	-0.012
1.131	-0.029
1.132	-0.046
1.133	-0.054
1.134	-0.054
1.135	-0.047
1.136	-0.035
1.137	-0.018
1.138	0.002
1.139	0.017
1.14	0.022
1.141	0.019
1.142	0.015
1.143	0.016
1.144	0.03
1.145	0.05
1.146	0.06
1.147	0.045
1.148	0.006
1.149	-0.04
1.15	-0.078
1.151	-0.1
1.152	-0.109
1.153	-0.106
1.154	-0.093
1.155	-0.065
1.156	-0.023
1.157	0.026
1.158	0.067
1.159	0.092
1.16	0.098
1.161	0.09
1.162	0.077
1.163	0.064
1.164	0.054
1.165	0.045
1.166	0.034
1.167	0.017
1.168	-0.008
1.169	-0.034
1.17	-0.053
1.171	-0.06
1.172	-0.059
1.173	-0.055
1.174	-0.046
1.175	-0.03
1.176	-0.011
1.177	0.004
1.178	0.011
1.179	0.01
1.18	0.009
1.181	0.015
1.182	0.029
1.183	0.046
1.184	0.06
1.185	0.068
1.186	0.067
1.187	0.053
1.188	0.024
1.189	-0.011
1.19	-0.044
1.191	-0.073
1.192	-0.099
1.193	-0.12
1.194	-0.129
1.195	-0.119
1.196	-0.088
1.197	-0.044
1.198	0.003
1.199	0.046
1.2	0.083
1.201	0.108
1.202	0.117
1.203	0.109
1.204	0.094
1.205	0.079
1.206	0.066
1.207	0.052
1.208	0.036
1.209	0.018
1.21	-0.006
1.211	-0.036
1.212	-0.065
1.213	-0.083
1.214	-0.086
1.215	-0.074
1.216	-0.055
1.217	-0.036
1.218	-0.014
1.219	0.02
1.22	0.065
1.221	0.106
1.222	0.126
1.223	0.125
1.224	0.113
1.225	0.094
1.226	0.068
1.227	0.035
1.228	-0.001
1.229	-0.033
1.23	-0.058
1.231	-0.073
1.232	-0.078
1.233	-0.075
1.234	-0.064
1.235	-0.044
1.236	-0.017
1.237	0.008
1.238	0.026
1.239	0.033
1.24	0.031
1.241	0.029
1.242	0.036
1.243	0.055
1.244	0.077
1.245	0.088
1.246	0.087
1.247	0.075
1.248	0.053
1.249	0.02
1.25	-0.02
1.251	-0.058
1.252	-0.09
1.253	-0.112
1.254	-0.112
1.255	-0.086
1.256	-0.04
1.257	0.006
1.258	0.039
1.259	0.06
1.26	0.072
1.261	0.08
1.262	0.083
1.263	0.081
1.264	0.074
1.265	0.061
1.266	0.045
1.267	0.031
1.268	0.023
1.269	0.018
1.27	0.008
1.271	-0.015
1.272	-0.051
1.273	-0.085
1.274	-0.1
1.275	-0.089
1.276	-0.06
1.277	-0.028
1.278	0
1.279	0.025
1.28	0.05
1.281	0.07
1.282	0.077
1.283	0.073
1.284	0.067
1.285	0.068
1.286	0.078
1.287	0.091
1.288	0.09
1.289	0.064
1.29	0.016
1.291	-0.034
1.292	-0.069
1.293	-0.083
1.294	-0.081
1.295	-0.067
1.296	-0.044
1.297	-0.009
1.298	0.03
1.299	0.063
1.3	0.082
1.301	0.09
1.302	0.092
1.303	0.093
1.304	0.091
1.305	0.088
1.306	0.08
1.307	0.065
1.308	0.037
1.309	-0.001
1.31	-0.041
1.311	-0.072
1.312	-0.089
1.313	-0.095
1.314	-0.09
1.315	-0.075
1.316	-0.051
1.317	-0.021
1.318	0.009
1.319	0.034
1.32	0.052
1.321	0.065
1.322	0.077
1.323	0.087
1.324	0.088
1.325	0.074
1.326	0.053
1.327	0.031
1.328	0.013
1.329	-0.007
1.33	-0.029
1.331	-0.047
1.332	-0.057
1.333	-0.061
1.334	-0.061
1.335	-0.058
1.336	-0.05
1.337	-0.035
1.338	-0.012
1.339	0.016
1.34	0.043
1.341	0.064
1.342	0.077
1.343	0.082
1.344	0.076
1.345	0.057
1.346	0.027
1.347	-0.007
1.348	-0.037
1.349	-0.057
1.35	-0.064
1.351	-0.058
1.352	-0.046
1.353	-0.041
1.354	-0.045
1.355	-0.051
1.356	-0.043
1.357	-0.016
1.358	0.024
1.359	0.068
1.36	0.107
1.361	0.134
1.362	0.144
1.363	0.139
1.364	0.123
1.365	0.099
1.366	0.065
1.367	0.028
1.368	-0.004
1.369	-0.025
1.37	-0.036
1.371	-0.045
1.372	-0.053
1.373	-0.059
1.374	-0.061
1.375	-0.055
1.376	-0.037
1.377	-0.01
1.378	0.018
1.379	0.039
1.38	0.051
1.381	0.06
1.382	0.07
1.383	0.083
1.384	0.09
1.385	0.083
1.386	0.062
1.387	0.036
1.388	0.017
1.389	0.007
1.39	-0.004
1.391	-0.023
1.392	-0.049
1.393	-0.071
1.394	-0.076
1.395	-0.063
1.396	-0.038
1.397	-0.009
1.398	0.018
1.399	0.039
1.4	0.051
1.401	0.054
1.402	0.054
1.403	0.056
1.404	0.062
1.405	0.067
1.406	0.059
1.407	0.036
1.408	0.008
1.409	-0.01
1.41	-0.018
1.411	-0.024
1.412	-0.036
1.413	-0.053
1.414	-0.065
1.415	-0.067
1.416	-0.056
1.417	-0.036
1.418	-0.009
1.419	0.022
1.42	0.054
1.421	0.085
1.422	0.106
1.423	0.11
1.424	0.096
1.425	0.075
1.426	0.059
1.427	0.049
1.428	0.036
1.429	0.017
1.43	-0.005
1.431	-0.026
1.432	-0.043
1.433	-0.054
1.434	-0.053
1.435	-0.04
1.436	-0.021
1.437	-0.002
1.438	0.014
1.439	0.027
1.44	0.039
1.441	0.052
1.442	0.063
1.443	0.066
1.444	0.064
1.445	0.058
1.446	0.051
1.447	0.043
1.448	0.038
1.449	0.044
1.45	0.052
1.451	0.05
1.452	0.031
1.453	0.003
1.454	-0.02
1.455	-0.033
1.456	-0.034
1.457	-0.027
1.458	-0.015
1.459	0
1.46	0.017
1.461	0.036
1.462	0.055
1.463	0.07
1.464	0.078
1.465	0.076
1.466	0.066
1.467	0.052
1.468	0.035
1.469	0.013
1.47	-0.013
1.471	-0.04
1.472	-0.059
1.473	-0.065
1.474	-0.06
1.475	-0.049
1.476	-0.038
1.477	-0.028
1.478	-0.017
1.479	0.005
1.48	0.043
1.481	0.089
1.482	0.125
1.483	0.135
1.484	0.118
1.485	0.083
1.486	0.047
1.487	0.022
1.488	0.006
1.489	-0.007
1.49	-0.021
1.491	-0.032
1.492	-0.034
1.493	-0.034
1.494	-0.037
1.495	-0.042
1.496	-0.041
1.497	-0.034
1.498	-0.026
1.499	-0.017
1.5	-0.006
1.501	0.012
1.502	0.037
1.503	0.062
1.504	0.08
1.505	0.081
1.506	0.063
1.507	0.031
1.508	-0.001
1.509	-0.025
1.51	-0.04
1.511	-0.054
1.512	-0.071
1.513	-0.086
1.514	-0.088
1.515	-0.075
1.516	-0.046
1.517	-0.01
1.518	0.021
1.519	0.042
1.52	0.055
1.521	0.066
1.522	0.077
1.523	0.087
1.524	0.09
1.525	0.082
1.526	0.064
1.527	0.041
1.528	0.019
1.529	-0.001
1.53	-0.023
1.531	-0.053
1.532	-0.084
1.533	-0.102
1.534	-0.102
1.535	-0.084
1.536	-0.052
1.537	-0.013
1.538	0.023
1.539	0.047
1.54	0.055
1.541	0.048
1.542	0.035
1.543	0.02
1.544	0.014
1.545	0.017
1.546	0.023
1.547	0.025
1.548	0.019
1.549	0.004
1.55	-0.02
1.551	-0.052
1.552	-0.087
1.553	-0.113
1.554	-0.122
1.555	-0.112
1.556	-0.085
1.557	-0.05
1.558	-0.014
1.559	0.019
1.56	0.046
1.561	0.068
1.562	0.089
1.563	0.107
1.564	0.115
1.565	0.108
1.566	0.086
1.567	0.055
1.568	0.023
1.569	-0.005
1.57	-0.027
1.571	-0.042
1.572	-0.053
1.573	-0.063
1.574	-0.069
1.575	-0.064
1.576	-0.045
1.577	-0.018
1.578	0.014
1.579	0.048
1.58	0.079
1.581	0.101
1.582	0.11
1.583	0.107
1.584	0.098
1.585	0.082
1.586	0.06
1.587	0.036
1.588	0.016
1.589	0.003
1.59	-0.009
1.591	-0.022
1.592	-0.033
1.593	-0.04
1.594	-0.041
1.595	-0.037
1.596	-0.025
1.597	-0.006
1.598	0.018
1.599	0.04
1.6	0.054
1.601	0.061
1.602	0.069
1.603	0.08
1.604	0.088
1.605	0.085
1.606	0.068
1.607	0.046
1.608	0.028
1.609	0.016
1.61	0
1.611	-0.026
1.612	-0.053
1.613	-0.071
1.614	-0.071
1.615	-0.056
1.616	-0.032
1.617	-0.01
1.618	0.012
1.619	0.038
1.62	0.073
1.621	0.108
1.622	0.128
1.623	0.126
1.624	0.108
1.625	0.083
1.626	0.055
1.627	0.024
1.628	-0.006
1.629	-0.028
1.63	-0.038
1.631	-0.044
1.632	-0.057
1.633	-0.075
1.634	-0.091
1.635	-0.095
1.636	-0.083
1.637	-0.053
1.638	-0.007
1.639	0.047
1.64	0.092
1.641	0.119
1.642	0.123
1.643	0.108
1.644	0.083
1.645	0.058
1.646	0.034
1.647	0.009
1.648	-0.016
1.649	-0.037
1.65	-0.056
1.651	-0.077
1.652	-0.1
1.653	-0.12
1.654	-0.132
1.655	-0.135
1.656	-0.137
1.657	-0.144
1.658	-0.151
1.659	-0.15
1.66	-0.138
1.661	-0.125
1.662	-0.122
1.663	-0.133
1.664	-0.153
1.665	-0.177
1.666	-0.202
1.667	-0.229
1.668	-0.261
1.669	-0.301
1.67	-0.343
1.671	-0.374
1.672	-0.387
1.673	-0.381
1.674	-0.364
1.675	-0.34
1.676	-0.308
1.677	-0.262
1.678	-0.195
1.679	-0.107
1.68	-0.009
1.681	0.09
1.682	0.185
1.683	0.27
1.684	0.337
1.685	0.377
1.686	0.395
1.687	0.404
1.688	0.418
1.689	0.444
1.69	0.481
1.691	0.519
1.692	0.551
1.693	0.576
1.694	0.598
1.695	0.62
1.696	0.641
1.697	0.664
1.698	0.693
1.699	0.726
1.7	0.75
1.701	0.758
1.702	0.756
1.703	0.751
1.704	0.744
1.705	0.732
1.706	0.708
1.707	0.667
1.708	0.605
1.709	0.526
1.71	0.445
1.711	0.373
1.712	0.316
1.713	0.275
1.714	0.255
1.715	0.254
1.716	0.258
1.717	0.253
1.718	0.237
1.719	0.216
1.72	0.199
1.721	0.19
1.722	0.183
1.723	0.178
1.724	0.176
1.725	0.171
1.726	0.16
1.727	0.135
1.728	0.098
1.729	0.051
1.73	0.001
1.731	-0.041
1.732	-0.068
1.733	-0.083
1.734	-0.091
1.735	-0.099
1.736	-0.106
1.737	-0.108
1.738	-0.098
1.739	-0.075
1.74	-0.039
1.741	-0.001
1.742	0.03
1.743	0.042
1.744	0.032
1.745	0.005
1.746	-0.026
1.747	-0.053
1.748	-0.075
1.749	-0.094
1.75	-0.113
1.751	-0.125
1.752	-0.127
1.753	-0.12
1.754	-0.108
1.755	-0.098
1.756	-0.091
1.757	-0.087
1.758	-0.081
1.759	-0.07
1.76	-0.054
1.761	-0.034
1.762	-0.01
1.763	0.015
1.764	0.032
1.765	0.031
1.766	0.007
1.767	-0.035
1.768	-0.085
1.769	-0.136
1.77	-0.185
1.771	-0.224
1.772	-0.244
1.773	-0.241
1.774	-0.219
1.775	-0.188
1.776	-0.151
1.777	-0.105
1.778	-0.05
1.779	0.005
1.78	0.049
1.781	0.07
1.782	0.061
1.783	0.031
1.784	-0.003
1.785	-0.027
1.786	-0.038
1.787	-0.043
1.788	-0.055
1.789	-0.078
1.79	-0.108
1.791	-0.139
1.792	-0.166
1.793	-0.186
1.794	-0.195
1.795	-0.184
1.796	-0.16
1.797	-0.134
1.798	-0.111
1.799	-0.087
1.8	-0.062
1.801	-0.042
1.802	-0.029
1.803	-0.024
1.804	-0.026
1.805	-0.035
1.806	-0.048
1.807	-0.061
1.808	-0.076
1.809	-0.097
1.81	-0.125
1.811	-0.158
1.812	-0.191
1.813	-0.214
1.814	-0.222
1.815	-0.212
1.816	-0.185
1.817	-0.148
1.818	-0.114
1.819	-0.089
1.82	-0.072
1.821	-0.057
1.822	-0.042
1.823	-0.03
1.824	-0.028
1.825	-0.038
1.826	-0.059
1.827	-0.083
1.828	-0.105
1.829	-0.125
1.83	-0.145
1.831	-0.169
1.832	-0.197
1.833	-0.22
1.834	-0.227
1.835	-0.213
1.836	-0.185
1.837	-0.155
1.838	-0.128
1.839	-0.105
1.84	-0.087
1.841	-0.076
1.842	-0.071
1.843	-0.072
1.844	-0.077
1.845	-0.088
1.846	-0.106
1.847	-0.12
1.848	-0.126
1.849	-0.126
1.85	-0.134
1.851	-0.155
1.852	-0.184
1.853	-0.208
1.854	-0.219
1.855	-0.222
1.856	-0.218
1.857	-0.2
1.858	-0.163
1.859	-0.116
1.86	-0.078
1.861	-0.059
1.862	-0.058
1.863	-0.068
1.864	-0.09
1.865	-0.125
1.866	-0.171
1.867	-0.215
1.868	-0.245
1.869	-0.254
1.87	-0.242
1.871	-0.214
1.872	-0.183
1.873	-0.162
1.874	-0.153
1.875	-0.151
1.876	-0.15
1.877	-0.153
1.878	-0.163
1.879	-0.171
1.88	-0.167
1.881	-0.146
1.882	-0.115
1.883	-0.087
1.884	-0.075
1.885	-0.082
1.886	-0.106
1.887	-0.139
1.888	-0.174
1.889	-0.203
1.89	-0.221
1.891	-0.228
1.892	-0.229
1.893	-0.227
1.894	-0.221
1.895	-0.211
1.896	-0.202
1.897	-0.195
1.898	-0.185
1.899	-0.169
1.9	-0.146
1.901	-0.122
1.902	-0.102
1.903	-0.091
1.904	-0.089
1.905	-0.095
1.906	-0.105
1.907	-0.121
1.908	-0.145
1.909	-0.173
1.91	-0.198
1.911	-0.216
1.912	-0.226
1.913	-0.232
1.914	-0.233
1.915	-0.228
1.916	-0.212
1.917	-0.186
1.918	-0.155
1.919	-0.127
1.92	-0.106
1.921	-0.088
1.922	-0.072
1.923	-0.06
1.924	-0.056
1.925	-0.062
1.926	-0.082
1.927	-0.113
1.928	-0.146
1.929	-0.175
1.93	-0.196
1.931	-0.211
1.932	-0.222
1.933	-0.225
1.934	-0.219
1.935	-0.206
1.936	-0.186
1.937	-0.159
1.938	-0.133
1.939	-0.116
1.94	-0.108
1.941	-0.098
1.942	-0.078
1.943	-0.05
1.944	-0.025
1.945	-0.008
1.946	-0.002
1.947	-0.007
1.948	-0.023
1.949	-0.049
1.95	-0.076
1.951	-0.099
1.952	-0.12
1.953	-0.138
1.954	-0.149
1.955	-0.148
1.956	-0.131
1.957	-0.104
1.958	-0.077
1.959	-0.055
1.96	-0.04
1.961	-0.036
1.962	-0.041
1.963	-0.046
1.964	-0.044
1.965	-0.035
1.966	-0.031
1.967	-0.036
1.968	-0.047
1.969	-0.057
1.97	-0.064
1.971	-0.069
1.972	-0.074
1.973	-0.076
1.974	-0.071
1.975	-0.056
1.976	-0.035
1.977	-0.013
1.978	0.003
1.979	0.005
1.98	-0.006
1.981	-0.014
1.982	-0.002
1.983	0.031
1.984	0.069
1.985	0.094
1.986	0.096
1.987	0.073
1.988	0.037
1.989	0.004
1.99	-0.018
1.991	-0.029
1.992	-0.037
1.993	-0.046
1.994	-0.053
1.995	-0.055
1.996	-0.046
1.997	-0.026
1.998	0.002
1.999	0.032
2	0.055
2.001	0.07
2.002	0.078
2.003	0.081
2.004	0.078
2.005	0.067
2.006	0.051
2.007	0.031
2.008	0.014
2.009	0.002
2.01	-0.007
2.011	-0.018
2.012	-0.035
2.013	-0.052
2.014	-0.062
2.015	-0.063
2.016	-0.053
2.017	-0.033
2.018	-0.005
2.019	0.026
2.02	0.054
2.021	0.079
2.022	0.099
2.023	0.116
2.024	0.122
2.025	0.114
2.026	0.096
2.027	0.075
2.028	0.052
2.029	0.025
2.03	-0.006
2.031	-0.031
2.032	-0.04
2.033	-0.033
2.034	-0.022
2.035	-0.017
2.036	-0.014
2.037	-0.008
2.038	0.007
2.039	0.03
2.04	0.059
2.041	0.091
2.042	0.12
2.043	0.134
2.044	0.131
2.045	0.115
2.046	0.094
2.047	0.074
2.048	0.057
2.049	0.04
2.05	0.023
2.051	0.009
2.052	-0.004
2.053	-0.013
2.054	-0.019
2.055	-0.021
2.056	-0.016
2.057	-0.002
2.058	0.017
2.059	0.041
2.06	0.066
2.061	0.087
2.062	0.1
2.063	0.1
2.064	0.092
2.065	0.079
2.066	0.06
2.067	0.038
2.068	0.017
2.069	0.005
2.07	0.005
2.071	0.009
2.072	0.007
2.073	0.002
2.074	-0.002
2.075	-0.004
2.076	-0.004
2.077	-0.001
2.078	0.005
2.079	0.017
2.08	0.039
2.081	0.071
2.082	0.105
2.083	0.127
2.084	0.129
2.085	0.114
2.086	0.09
2.087	0.066
2.088	0.047
2.089	0.032
2.09	0.018
2.091	0.003
2.092	-0.012
2.093	-0.026
2.094	-0.037
2.095	-0.043
2.096	-0.039
2.097	-0.022
2.098	0.006
2.099	0.036
2.1	0.059
2.101	0.073
2.102	0.076
2.103	0.068
2.104	0.053
2.105	0.039
2.106	0.03
2.107	0.024
2.108	0.018
2.109	0.008
2.11	-0.007
2.111	-0.024
2.112	-0.042
2.113	-0.059
2.114	-0.072
2.115	-0.076
2.116	-0.07
2.117	-0.051
2.118	-0.02
2.119	0.023
2.12	0.07
2.121	0.111
2.122	0.134
2.123	0.13
2.124	0.107
2.125	0.078
2.126	0.052
2.127	0.027
2.128	0.004
2.129	-0.018
2.13	-0.038
2.131	-0.055
2.132	-0.063
2.133	-0.058
2.134	-0.045
2.135	-0.032
2.136	-0.021
2.137	-0.006
2.138	0.014
2.139	0.038
2.14	0.063
2.141	0.085
2.142	0.097
2.143	0.094
2.144	0.081
2.145	0.059
2.146	0.031
2.147	0
2.148	-0.027
2.149	-0.041
2.15	-0.038
2.151	-0.023
2.152	-0.009
2.153	-0.007
2.154	-0.013
2.155	-0.019
2.156	-0.02
2.157	-0.015
2.158	-0.007
2.159	0.005
2.16	0.016
2.161	0.026
2.162	0.036
2.163	0.051
2.164	0.073
2.165	0.096
2.166	0.108
2.167	0.101
2.168	0.08
2.169	0.05
2.17	0.016
2.171	-0.02
2.172	-0.056
2.173	-0.082
2.174	-0.092
2.175	-0.087
2.176	-0.072
2.177	-0.051
2.178	-0.02
2.179	0.021
2.18	0.067
2.181	0.109
2.182	0.142
2.183	0.161
2.184	0.157
2.185	0.133
2.186	0.098
2.187	0.064
2.188	0.036
2.189	0.001
2.19	-0.047
2.191	-0.093
2.192	-0.113
2.193	-0.097
2.194	-0.056
2.195	-0.011
2.196	0.02
2.197	0.034
2.198	0.036
2.199	0.037
2.2	0.043
2.201	0.056
2.202	0.07
2.203	0.079
2.204	0.078
2.205	0.07
2.206	0.062
2.207	0.057
2.208	0.051
2.209	0.034
2.21	0.005
2.211	-0.026
2.212	-0.05
2.213	-0.064
2.214	-0.072
2.215	-0.073
2.216	-0.066
2.217	-0.048
2.218	-0.018
2.219	0.022
2.22	0.065
2.221	0.097
2.222	0.109
2.223	0.107
2.224	0.1
2.225	0.091
2.226	0.082
2.227	0.071
2.228	0.056
2.229	0.032
2.23	0.002
2.231	-0.026
2.232	-0.048
2.233	-0.058
2.234	-0.058
2.235	-0.051
2.236	-0.04
2.237	-0.029
2.238	-0.02
2.239	-0.012
2.24	-0.009
2.241	-0.01
2.242	-0.01
2.243	-0.004
2.244	0.014
2.245	0.04
2.246	0.065
2.247	0.075
2.248	0.067
2.249	0.046
2.25	0.02
2.251	-0.006
2.252	-0.029
2.253	-0.044
2.254	-0.049
2.255	-0.047
2.256	-0.042
2.257	-0.031
2.258	-0.013
2.259	0.012
2.26	0.037
2.261	0.061
2.262	0.082
2.263	0.099
2.264	0.107
2.265	0.103
2.266	0.086
2.267	0.055
2.268	0.012
2.269	-0.034
2.27	-0.069
2.271	-0.084
2.272	-0.084
2.273	-0.077
2.274	-0.061
2.275	-0.035
2.276	-0.003
2.277	0.026
2.278	0.049
2.279	0.069
2.28	0.089
2.281	0.107
2.282	0.117
2.283	0.115
2.284	0.097
2.285	0.068
2.286	0.033
2.287	0.002
2.288	-0.02
2.289	-0.034
2.29	-0.044
2.291	-0.052
2.292	-0.056
2.293	-0.059
2.294	-0.061
2.295	-0.064
2.296	-0.065
2.297	-0.059
2.298	-0.041
2.299	-0.015
2.3	0.01
2.301	0.028
2.302	0.043
2.303	0.061
2.304	0.081
2.305	0.088
2.306	0.078
2.307	0.057
2.308	0.032
2.309	0.004
2.31	-0.024
2.311	-0.043
2.312	-0.053
2.313	-0.055
2.314	-0.051
2.315	-0.042
2.316	-0.031
2.317	-0.019
2.318	-0.008
2.319	0.003
2.32	0.017
2.321	0.038
2.322	0.065
2.323	0.085
2.324	0.087
2.325	0.076
2.326	0.06
2.327	0.044
2.328	0.028
2.329	0.011
2.33	-0.006
2.331	-0.022
2.332	-0.039
2.333	-0.058
2.334	-0.077
2.335	-0.089
2.336	-0.09
2.337	-0.08
2.338	-0.055
2.339	-0.013
2.34	0.037
2.341	0.079
2.342	0.101
2.343	0.102
2.344	0.09
2.345	0.071
2.346	0.054
2.347	0.041
2.348	0.029
2.349	0.013
2.35	-0.012
2.351	-0.042
2.352	-0.073
2.353	-0.096
2.354	-0.1
2.355	-0.082
2.356	-0.049
2.357	-0.013
2.358	0.015
2.359	0.03
2.36	0.032
2.361	0.032
2.362	0.036
2.363	0.044
2.364	0.051
2.365	0.052
2.366	0.045
2.367	0.03
2.368	0.006
2.369	-0.024
2.37	-0.052
2.371	-0.067
2.372	-0.073
2.373	-0.078
2.374	-0.081
2.375	-0.072
2.376	-0.045
2.377	-0.007
2.378	0.025
2.379	0.044
2.38	0.051
2.381	0.055
2.382	0.061
2.383	0.066
2.384	0.064
2.385	0.06
2.386	0.062
2.387	0.072
2.388	0.078
2.389	0.07
2.39	0.048
2.391	0.018
2.392	-0.008
2.393	-0.026
2.394	-0.034
2.395	-0.034
2.396	-0.029
2.397	-0.022
2.398	-0.014
2.399	-0.002
2.4	0.018
2.401	0.039
2.402	0.053
2.403	0.059
2.404	0.06
2.405	0.059
2.406	0.058
2.407	0.057
2.408	0.058
2.409	0.053
2.41	0.039
2.411	0.015
2.412	-0.01
2.413	-0.031
2.414	-0.045
2.415	-0.052
2.416	-0.051
2.417	-0.039
2.418	-0.018
2.419	0.009
2.42	0.037
2.421	0.06
2.422	0.076
2.423	0.085
2.424	0.083
2.425	0.065
2.426	0.036
2.427	0.01
2.428	-0.01
2.429	-0.027
2.43	-0.044
2.431	-0.054
2.432	-0.049
2.433	-0.034
2.434	-0.02
2.435	-0.01
2.436	0
2.437	0.015
2.438	0.031
2.439	0.042
2.44	0.048
2.441	0.053
2.442	0.061
2.443	0.068
2.444	0.068
2.445	0.057
2.446	0.038
2.447	0.021
2.448	0.01
2.449	-0.003
2.45	-0.028
2.451	-0.065
2.452	-0.096
2.453	-0.11
2.454	-0.107
2.455	-0.095
2.456	-0.077
2.457	-0.051
2.458	-0.02
2.459	0.012
2.46	0.043
2.461	0.073
2.462	0.093
2.463	0.095
2.464	0.084
2.465	0.07
2.466	0.06
2.467	0.047
2.468	0.024
2.469	-0.006
2.47	-0.033
2.471	-0.053
2.472	-0.062
2.473	-0.057
2.474	-0.042
2.475	-0.022
2.476	-0.007
2.477	0.001
2.478	0.003
2.479	0.009
2.48	0.022
2.481	0.043
2.482	0.063
2.483	0.072
2.484	0.07
2.485	0.062
2.486	0.052
2.487	0.042
2.488	0.03
2.489	0.017
2.49	0.004
2.491	-0.009
2.492	-0.025
2.493	-0.042
2.494	-0.056
2.495	-0.057
2.496	-0.042
2.497	-0.023
2.498	-0.011
2.499	-0.007
2.5	0
2.501	0.019
2.502	0.046
2.503	0.067
2.504	0.069
2.505	0.052
2.506	0.028
2.507	0.011
2.508	0.004
2.509	-0.001
2.51	-0.012
2.511	-0.031
2.512	-0.051
2.513	-0.069
2.514	-0.083
2.515	-0.085
2.516	-0.073
2.517	-0.051
2.518	-0.029
2.519	-0.009
2.52	0.011
2.521	0.03
2.522	0.046
2.523	0.057
2.524	0.064
2.525	0.066
2.526	0.062
2.527	0.05
2.528	0.027
2.529	-0.006
2.53	-0.043
2.531	-0.073
2.532	-0.087
2.533	-0.082
2.534	-0.063
2.535	-0.038
2.536	-0.017
2.537	-0.005
2.538	0.002
2.539	0.006
2.54	0.009
2.541	0.013
2.542	0.016
2.543	0.014
2.544	0.007
2.545	-0.005
2.546	-0.018
2.547	-0.035
2.548	-0.055
2.549	-0.07
2.55	-0.075
2.551	-0.075
2.552	-0.078
2.553	-0.082
2.554	-0.078
2.555	-0.066
2.556	-0.053
2.557	-0.046
2.558	-0.038
2.559	-0.024
2.56	-0.007
2.561	0.008
2.562	0.017
2.563	0.02
2.564	0.021
2.565	0.02
2.566	0.018
2.567	0.016
2.568	0.008
2.569	-0.011
2.57	-0.038
2.571	-0.062
2.572	-0.072
2.573	-0.07
2.574	-0.062
2.575	-0.056
2.576	-0.05
2.577	-0.038
2.578	-0.021
2.579	0.002
2.58	0.028
2.581	0.053
2.582	0.075
2.583	0.089
2.584	0.094
2.585	0.093
2.586	0.084
2.587	0.065
2.588	0.036
2.589	0.004
2.59	-0.022
2.591	-0.041
2.592	-0.056
2.593	-0.069
2.594	-0.077
2.595	-0.076
2.596	-0.065
2.597	-0.049
2.598	-0.032
2.599	-0.013
2.6	0.011
2.601	0.042
2.602	0.073
2.603	0.096
2.604	0.1
2.605	0.082
2.606	0.048
2.607	0.01
2.608	-0.026
2.609	-0.052
2.61	-0.063
2.611	-0.058
2.612	-0.045
2.613	-0.034
2.614	-0.026
2.615	-0.021
2.616	-0.014
2.617	-0.003
2.618	0.009
2.619	0.019
2.62	0.025
2.621	0.03
2.622	0.044
2.623	0.069
2.624	0.097
2.625	0.113
2.626	0.101
2.627	0.07
2.628	0.038
2.629	0.015
2.63	-0.001
2.631	-0.018
2.632	-0.036
2.633	-0.051
2.634	-0.059
2.635	-0.06
2.636	-0.054
2.637	-0.037
2.638	-0.01
2.639	0.022
2.64	0.052
2.641	0.077
2.642	0.097
2.643	0.106
2.644	0.101
2.645	0.08
2.646	0.051
2.647	0.026
2.648	0.009
2.649	0
2.65	-0.014
2.651	-0.038
2.652	-0.066
2.653	-0.084
2.654	-0.085
2.655	-0.068
2.656	-0.039
2.657	-0.006
2.658	0.021
2.659	0.037
2.66	0.048
2.661	0.055
2.662	0.056
2.663	0.047
2.664	0.03
2.665	0.006
2.666	-0.025
2.667	-0.061
2.668	-0.094
2.669	-0.122
2.67	-0.15
2.671	-0.186
2.672	-0.229
2.673	-0.27
2.674	-0.303
2.675	-0.322
2.676	-0.331
2.677	-0.332
2.678	-0.327
2.679	-0.316
2.68	-0.297
2.681	-0.275
2.682	-0.257
2.683	-0.25
2.684	-0.252
2.685	-0.257
2.686	-0.259
2.687	-0.253
2.688	-0.237
2.689	-0.205
2.69	-0.155
2.691	-0.087
2.692	-0.005
2.693	0.085
2.694	0.169
2.695	0.243
2.696	0.309
2.697	0.371
2.698	0.432
2.699	0.494
2.7	0.555
2.701	0.611
2.702	0.655
2.703	0.686
2.704	0.706
2.705	0.717
2.706	0.719
2.707	0.712
2.708	0.696
2.709	0.673
2.71	0.649
2.711	0.629
2.712	0.608
2.713	0.586
2.714	0.568
2.715	0.559
2.716	0.556
2.717	0.552
2.718	0.54
2.719	0.521
2.72	0.495
2.721	0.464
2.722	0.432
2.723	0.4
2.724	0.37
2.725	0.347
2.726	0.328
2.727	0.306
2.728	0.275
2.729	0.235
2.73	0.193
2.731	0.153
2.732	0.119
2.733	0.089
2.734	0.057
2.735	0.026
2.736	0.006
2.737	0.006
2.738	0.025
2.739	0.051
2.74	0.071
2.741	0.081
2.742	0.083
2.743	0.082
2.744	0.077
2.745	0.063
2.746	0.035
2.747	-0.002
2.748	-0.035
2.749	-0.058
2.75	-0.073
2.751	-0.086
2.752	-0.098
2.753	-0.106
2.754	-0.106
2.755	-0.098
2.756	-0.085
2.757	-0.069
2.758	-0.052
2.759	-0.036
2.76	-0.016
2.761	0.009
2.762	0.035
2.763	0.053
2.764	0.051
2.765	0.029
2.766	-0.005
2.767	-0.032
2.768	-0.045
2.769	-0.051
2.77	-0.059
2.771	-0.072
2.772	-0.089
2.773	-0.106
2.774	-0.121
2.775	-0.13
2.776	-0.135
2.777	-0.131
2.778	-0.115
2.779	-0.083
2.78	-0.045
2.781	-0.01
2.782	0.015
2.783	0.032
2.784	0.039
2.785	0.03
2.786	0.009
2.787	-0.017
2.788	-0.042
2.789	-0.067
2.79	-0.094
2.791	-0.123
2.792	-0.149
2.793	-0.165
2.794	-0.168
2.795	-0.161
2.796	-0.151
2.797	-0.135
2.798	-0.111
2.799	-0.083
2.8	-0.061
2.801	-0.049
2.802	-0.045
2.803	-0.048
2.804	-0.055
2.805	-0.062
2.806	-0.062
2.807	-0.057
2.808	-0.054
2.809	-0.064
2.81	-0.087
2.811	-0.114
2.812	-0.136
2.813	-0.154
2.814	-0.167
2.815	-0.166
2.816	-0.143
2.817	-0.104
2.818	-0.067
2.819	-0.044
2.82	-0.031
2.821	-0.02
2.822	-0.011
2.823	-0.009
2.824	-0.016
2.825	-0.027
2.826	-0.043
2.827	-0.062
2.828	-0.08
2.829	-0.089
2.83	-0.097
2.831	-0.111
2.832	-0.132
2.833	-0.148
2.834	-0.158
2.835	-0.163
2.836	-0.165
2.837	-0.156
2.838	-0.132
2.839	-0.099
2.84	-0.066
2.841	-0.039
2.842	-0.022
2.843	-0.018
2.844	-0.025
2.845	-0.041
2.846	-0.057
2.847	-0.069
2.848	-0.081
2.849	-0.099
2.85	-0.123
2.851	-0.151
2.852	-0.176
2.853	-0.193
2.854	-0.197
2.855	-0.189
2.856	-0.171
2.857	-0.147
2.858	-0.122
2.859	-0.105
2.86	-0.092
2.861	-0.073
2.862	-0.045
2.863	-0.015
2.864	0.003
2.865	0
2.866	-0.02
2.867	-0.053
2.868	-0.091
2.869	-0.126
2.87	-0.156
2.871	-0.182
2.872	-0.2
2.873	-0.205
2.874	-0.2
2.875	-0.19
2.876	-0.177
2.877	-0.162
2.878	-0.142
2.879	-0.12
2.88	-0.099
2.881	-0.085
2.882	-0.08
2.883	-0.08
2.884	-0.083
2.885	-0.088
2.886	-0.098
2.887	-0.116
2.888	-0.138
2.889	-0.157
2.89	-0.167
2.891	-0.174
2.892	-0.185
2.893	-0.198
2.894	-0.207
2.895	-0.206
2.896	-0.199
2.897	-0.188
2.898	-0.176
2.899	-0.157
2.9	-0.128
2.901	-0.094
2.902	-0.066
2.903	-0.051
2.904	-0.05
2.905	-0.058
2.906	-0.073
2.907	-0.091
2.908	-0.113
2.909	-0.137
2.91	-0.161
2.911	-0.182
2.912	-0.195
2.913	-0.202
2.914	-0.205
2.915	-0.205
2.916	-0.2
2.917	-0.184
2.918	-0.154
2.919	-0.114
2.92	-0.076
2.921	-0.05
2.922	-0.038
2.923	-0.038
2.924	-0.044
2.925	-0.052
2.926	-0.06
2.927	-0.07
2.928	-0.086
2.929	-0.113
2.93	-0.146
2.931	-0.174
2.932	-0.19
2.933	-0.191
2.934	-0.179
2.935	-0.158
2.936	-0.137
2.937	-0.123
2.938	-0.117
2.939	-0.111
2.94	-0.104
2.941	-0.097
2.942	-0.092
2.943	-0.083
2.944	-0.069
2.945	-0.054
2.946	-0.048
2.947	-0.053
2.948	-0.066
2.949	-0.081
2.95	-0.098
2.951	-0.114
2.952	-0.127
2.953	-0.133
2.954	-0.131
2.955	-0.125
2.956	-0.118
2.957	-0.107
2.958	-0.093
2.959	-0.075
2.96	-0.057
2.961	-0.041
2.962	-0.029
2.963	-0.023
2.964	-0.026
2.965	-0.038
2.966	-0.053
2.967	-0.063
2.968	-0.059
2.969	-0.042
2.97	-0.022
2.971	-0.013
2.972	-0.018
2.973	-0.039
2.974	-0.071
2.975	-0.101
2.976	-0.113
2.977	-0.103
2.978	-0.077
2.979	-0.043
2.98	-0.007
2.981	0.028
2.982	0.061
2.983	0.089
2.984	0.106
2.985	0.109
2.986	0.097
2.987	0.073
2.988	0.038
2.989	-0.005
2.99	-0.043
2.991	-0.071
2.992	-0.089
2.993	-0.101
2.994	-0.098
2.995	-0.076
2.996	-0.043
2.997	-0.008
2.998	0.026
2.999	0.06
3	0.087
3.001	0.1
3.002	0.102
3.003	0.102
3.004	0.103
3.005	0.102
3.006	0.093
3.007	0.076
3.008	0.053
3.009	0.027
3.01	-0.004
3.011	-0.039
3.012	-0.068
3.013	-0.078
3.014	-0.062
3.015	-0.025
3.016	0.013
3.017	0.033
3.018	0.03
3.019	0.017
3.02	0.013
3.021	0.029
3.022	0.059
3.023	0.093
3.024	0.117
3.025	0.124
3.026	0.112
3.027	0.087
3.028	0.059
3.029	0.035
3.03	0.016
3.031	0
3.032	-0.015
3.033	-0.026
3.034	-0.032
3.035	-0.029
3.036	-0.018
3.037	-0.002
3.038	0.015
3.039	0.033
3.04	0.056
3.041	0.083
3.042	0.107
3.043	0.122
3.044	0.125
3.045	0.118
3.046	0.103
3.047	0.084
3.048	0.063
3.049	0.046
3.05	0.036
3.051	0.027
3.052	0.014
3.053	-0.007
3.054	-0.031
3.055	-0.052
3.056	-0.06
3.057	-0.045
3.058	-0.009
3.059	0.037
3.06	0.082
3.061	0.12
3.062	0.15
3.063	0.171
3.064	0.183
3.065	0.184
3.066	0.173
3.067	0.148
3.068	0.117
3.069	0.084
3.07	0.05
3.071	0.016
3.072	-0.011
3.073	-0.02
3.074	-0.007
3.075	0.018
3.076	0.038
3.077	0.045
3.078	0.041
3.079	0.04
3.08	0.051
3.081	0.072
3.082	0.095
3.083	0.114
3.084	0.122
3.085	0.116
3.086	0.096
3.087	0.07
3.088	0.045
3.089	0.026
3.09	0.009
3.091	-0.011
3.092	-0.036
3.093	-0.063
3.094	-0.081
3.095	-0.086
3.096	-0.077
3.097	-0.056
3.098	-0.025
3.099	0.011
3.1	0.042
3.101	0.065
3.102	0.084
3.103	0.105
3.104	0.126
3.105	0.135
3.106	0.125
3.107	0.098
3.108	0.06
3.109	0.019
3.11	-0.019
3.111	-0.048
3.112	-0.066
3.113	-0.075
3.114	-0.072
3.115	-0.053
3.116	-0.027
3.117	-0.003
3.118	0.012
3.119	0.021
3.12	0.027
3.121	0.033
3.122	0.036
3.123	0.033
3.124	0.031
3.125	0.037
3.126	0.05
3.127	0.053
3.128	0.036
3.129	0.006
3.13	-0.022
3.131	-0.043
3.132	-0.06
3.133	-0.072
3.134	-0.074
3.135	-0.065
3.136	-0.051
3.137	-0.038
3.138	-0.029
3.139	-0.018
3.14	-0.004
3.141	0.007
3.142	0.009
3.143	0.006
3.144	0.006
3.145	0.02
3.146	0.047
3.147	0.078
3.148	0.099
3.149	0.101
3.15	0.083
3.151	0.044
3.152	-0.008
3.153	-0.061
3.154	-0.1
3.155	-0.114
3.156	-0.1
3.157	-0.062
3.158	-0.015
3.159	0.026
3.16	0.052
3.161	0.063
3.162	0.067
3.163	0.071
3.164	0.075
3.165	0.072
3.166	0.06
3.167	0.037
3.168	0.008
3.169	-0.02
3.17	-0.04
3.171	-0.05
3.172	-0.053
3.173	-0.056
3.174	-0.063
3.175	-0.068
3.176	-0.064
3.177	-0.051
3.178	-0.033
3.179	-0.016
3.18	-0.001
3.181	0.013
3.182	0.03
3.183	0.047
3.184	0.063
3.185	0.071
3.186	0.068
3.187	0.054
3.188	0.032
3.189	0.006
3.19	-0.015
3.191	-0.028
3.192	-0.039
3.193	-0.05
3.194	-0.06
3.195	-0.063
3.196	-0.055
3.197	-0.038
3.198	-0.018
3.199	0.001
3.2	0.022
3.201	0.047
3.202	0.073
3.203	0.089
3.204	0.091
3.205	0.081
3.206	0.068
3.207	0.053
3.208	0.037
3.209	0.021
3.21	0.006
3.211	-0.01
3.212	-0.03
3.213	-0.056
3.214	-0.083
3.215	-0.104
3.216	-0.113
3.217	-0.099
3.218	-0.061
3.219	-0.01
3.22	0.037
3.221	0.072
3.222	0.094
3.223	0.107
3.224	0.109
3.225	0.1
3.226	0.086
3.227	0.069
3.228	0.047
3.229	0.017
3.23	-0.016
3.231	-0.047
3.232	-0.075
3.233	-0.1
3.234	-0.116
3.235	-0.116
3.236	-0.1
3.237	-0.075
3.238	-0.042
3.239	-0.004
3.24	0.039
3.241	0.085
3.242	0.127
3.243	0.156
3.244	0.163
3.245	0.15
3.246	0.128
3.247	0.099
3.248	0.064
3.249	0.026
3.25	-0.011
3.251	-0.041
3.252	-0.062
3.253	-0.067
3.254	-0.054
3.255	-0.029
3.256	-0.001
3.257	0.021
3.258	0.036
3.259	0.048
3.26	0.062
3.261	0.075
3.262	0.085
3.263	0.093
3.264	0.1
3.265	0.1
3.266	0.089
3.267	0.066
3.268	0.03
3.269	-0.008
3.27	-0.038
3.271	-0.051
3.272	-0.048
3.273	-0.04
3.274	-0.033
3.275	-0.028
3.276	-0.022
3.277	-0.012
3.278	0.007
3.279	0.031
3.28	0.059
3.281	0.083
3.282	0.099
3.283	0.102
3.284	0.095
3.285	0.083
3.286	0.071
3.287	0.06
3.288	0.05
3.289	0.042
3.29	0.029
3.291	0.003
3.292	-0.033
3.293	-0.064
3.294	-0.081
3.295	-0.086
3.296	-0.086
3.297	-0.072
3.298	-0.034
3.299	0.021
3.3	0.073
3.301	0.103
3.302	0.104
3.303	0.086
3.304	0.067
3.305	0.059
3.306	0.063
3.307	0.066
3.308	0.06
3.309	0.047
3.31	0.033
3.311	0.02
3.312	0.009
3.313	-0.002
3.314	-0.015
3.315	-0.033
3.316	-0.05
3.317	-0.057
3.318	-0.044
3.319	-0.015
3.32	0.023
3.321	0.058
3.322	0.081
3.323	0.091
3.324	0.093
3.325	0.091
3.326	0.083
3.327	0.064
3.328	0.038
3.329	0.017
3.33	0.007
3.331	0.004
3.332	0.001
3.333	-0.007
3.334	-0.017
3.335	-0.025
3.336	-0.032
3.337	-0.033
3.338	-0.03
3.339	-0.02
3.34	0.002
3.341	0.036
3.342	0.073
3.343	0.1
3.344	0.111
3.345	0.107
3.346	0.091
3.347	0.072
3.348	0.055
3.349	0.042
3.35	0.033
3.351	0.025
3.352	0.018
3.353	0.013
3.354	0.004
3.355	-0.008
3.356	-0.018
3.357	-0.013
3.358	0.01
3.359	0.042
3.36	0.065
3.361	0.072
3.362	0.071
3.363	0.072
3.364	0.08
3.365	0.084
3.366	0.074
3.367	0.053
3.368	0.028
3.369	0.005
3.37	-0.014
3.371	-0.03
3.372	-0.042
3.373	-0.055
3.374	-0.067
3.375	-0.074
3.376	-0.073
3.377	-0.058
3.378	-0.027
3.379	0.017
3.38	0.064
3.381	0.097
3.382	0.107
3.383	0.096
3.384	0.074
3.385	0.054
3.386	0.044
3.387	0.044
3.388	0.047
3.389	0.042
3.39	0.026
3.391	0.004
3.392	-0.013
3.393	-0.021
3.394	-0.021
3.395	-0.017
3.396	-0.008
3.397	0.007
3.398	0.026
3.399	0.042
3.4	0.054
3.401	0.062
3.402	0.07
3.403	0.075
3.404	0.078
3.405	0.08
3.406	0.088
3.407	0.098
3.408	0.1
3.409	0.083
3.41	0.049
3.411	0.01
3.412	-0.029
3.413	-0.065
3.414	-0.091
3.415	-0.092
3.416	-0.062
3.417	-0.013
3.418	0.031
3.419	0.053
3.42	0.054
3.421	0.042
3.422	0.033
3.423	0.037
3.424	0.057
3.425	0.086
3.426	0.111
3.427	0.123
3.428	0.116
3.429	0.094
3.43	0.064
3.431	0.031
3.432	-0.001
3.433	-0.028
3.434	-0.043
3.435	-0.043
3.436	-0.028
3.437	-0.007
3.438	0.008
3.439	0.017
3.44	0.023
3.441	0.033
3.442	0.047
3.443	0.063
3.444	0.079
3.445	0.089
3.446	0.089
3.447	0.08
3.448	0.066
3.449	0.046
3.45	0.021
3.451	-0.009
3.452	-0.04
3.453	-0.066
3.454	-0.076
3.455	-0.071
3.456	-0.057
3.457	-0.04
3.458	-0.02
3.459	0.008
3.46	0.038
3.461	0.062
3.462	0.07
3.463	0.062
3.464	0.05
3.465	0.041
3.466	0.037
3.467	0.036
3.468	0.037
3.469	0.038
3.47	0.03
3.471	0.005
3.472	-0.03
3.473	-0.061
3.474	-0.08
3.475	-0.083
3.476	-0.07
3.477	-0.045
3.478	-0.016
3.479	0.011
3.48	0.032
3.481	0.052
3.482	0.074
3.483	0.098
3.484	0.117
3.485	0.122
3.486	0.11
3.487	0.086
3.488	0.059
3.489	0.032
3.49	0
3.491	-0.035
3.492	-0.063
3.493	-0.074
3.494	-0.072
3.495	-0.064
3.496	-0.052
3.497	-0.035
3.498	-0.015
3.499	0.003
3.5	0.016
3.501	0.026
3.502	0.037
3.503	0.047
3.504	0.056
3.505	0.062
3.506	0.065
3.507	0.063
3.508	0.054
3.509	0.032
3.51	-0.001
3.511	-0.036
3.512	-0.06
3.513	-0.067
3.514	-0.059
3.515	-0.041
3.516	-0.02
3.517	0.003
3.518	0.024
3.519	0.037
3.52	0.045
3.521	0.051
3.522	0.064
3.523	0.084
3.524	0.103
3.525	0.109
3.526	0.099
3.527	0.081
3.528	0.064
3.529	0.045
3.53	0.025
3.531	0.003
3.532	-0.017
3.533	-0.036
3.534	-0.051
3.535	-0.058
3.536	-0.056
3.537	-0.047
3.538	-0.033
3.539	-0.012
3.54	0.015
3.541	0.042
3.542	0.059
3.543	0.065
3.544	0.063
3.545	0.057
3.546	0.045
3.547	0.027
3.548	0.004
3.549	-0.021
3.55	-0.043
3.551	-0.057
3.552	-0.059
3.553	-0.054
3.554	-0.049
3.555	-0.047
3.556	-0.044
3.557	-0.036
3.558	-0.023
3.559	-0.006
3.56	0.015
3.561	0.043
3.562	0.075
3.563	0.1
3.564	0.105
3.565	0.09
3.566	0.06
3.567	0.02
3.568	-0.021
3.569	-0.055
3.57	-0.074
3.571	-0.08
3.572	-0.079
3.573	-0.074
3.574	-0.067
3.575	-0.055
3.576	-0.039
3.577	-0.023
3.578	-0.013
3.579	-0.008
3.58	0.001
3.581	0.024
3.582	0.06
3.583	0.1
3.584	0.132
3.585	0.146
3.586	0.14
3.587	0.116
3.588	0.084
3.589	0.052
3.59	0.027
3.591	0.009
3.592	-0.008
3.593	-0.028
3.594	-0.049
3.595	-0.063
3.596	-0.064
3.597	-0.046
3.598	-0.007
3.599	0.043
3.6	0.086
3.601	0.114
3.602	0.129
3.603	0.13
3.604	0.116
3.605	0.091
3.606	0.066
3.607	0.043
3.608	0.02
3.609	-0.008
3.61	-0.037
3.611	-0.056
3.612	-0.067
3.613	-0.072
3.614	-0.075
3.615	-0.069
3.616	-0.05
3.617	-0.022
3.618	0.008
3.619	0.032
3.62	0.052
3.621	0.071
3.622	0.087
3.623	0.096
3.624	0.096
3.625	0.086
3.626	0.073
3.627	0.061
3.628	0.054
3.629	0.044
3.63	0.022
3.631	-0.012
3.632	-0.048
3.633	-0.068
3.634	-0.071
3.635	-0.063
3.636	-0.056
3.637	-0.055
3.638	-0.054
3.639	-0.045
3.64	-0.026
3.641	0
3.642	0.029
3.643	0.059
3.644	0.085
3.645	0.099
3.646	0.097
3.647	0.083
3.648	0.062
3.649	0.04
3.65	0.02
3.651	0
3.652	-0.021
3.653	-0.041
3.654	-0.054
3.655	-0.059
3.656	-0.052
3.657	-0.036
3.658	-0.011
3.659	0.018
3.66	0.041
3.661	0.052
3.662	0.058
3.663	0.067
3.664	0.083
3.665	0.095
3.666	0.091
3.667	0.07
3.668	0.038
3.669	0.006
3.67	-0.021
3.671	-0.042
3.672	-0.062
3.673	-0.083
3.674	-0.104
3.675	-0.114
3.676	-0.105
3.677	-0.073
3.678	-0.027
3.679	0.018
3.68	0.05
3.681	0.065
3.682	0.068
3.683	0.066
3.684	0.065
3.685	0.062
3.686	0.053
3.687	0.04
3.688	0.03
3.689	0.026
3.69	0.024
3.691	0.014
3.692	-0.007
3.693	-0.033
3.694	-0.053
3.695	-0.058
3.696	-0.046
3.697	-0.021
3.698	0.007
3.699	0.029
3.7	0.048
3.701	0.068
3.702	0.086
3.703	0.095
3.704	0.085
3.705	0.058
3.706	0.021
3.707	-0.011
3.708	-0.031
3.709	-0.036
3.71	-0.028
3.711	-0.017
3.712	-0.009
3.713	-0.008
3.714	-0.006
3.715	0.003
3.716	0.015
3.717	0.023
3.718	0.025
3.719	0.025
3.72	0.029
3.721	0.038
3.722	0.055
3.723	0.079
3.724	0.104
3.725	0.117
3.726	0.112
3.727	0.096
3.728	0.081
3.729	0.067
3.73	0.048
3.731	0.018
3.732	-0.013
3.733	-0.033
3.734	-0.038
3.735	-0.029
3.736	-0.015
3.737	-0.002
3.738	0.009
3.739	0.021
3.74	0.04
3.741	0.062
3.742	0.079
3.743	0.087
3.744	0.089
3.745	0.086
3.746	0.074
3.747	0.053
3.748	0.028
3.749	0.014
3.75	0.018
3.751	0.037
3.752	0.053
3.753	0.052
3.754	0.036
3.755	0.023
3.756	0.023
3.757	0.035
3.758	0.048
3.759	0.057
3.76	0.062
3.761	0.067
3.762	0.073
3.763	0.076
3.764	0.075
3.765	0.07
3.766	0.061
3.767	0.046
3.768	0.023
3.769	-0.006
3.77	-0.039
3.771	-0.076
3.772	-0.117
3.773	-0.161
3.774	-0.199
3.775	-0.219
3.776	-0.218
3.777	-0.205
3.778	-0.197
3.779	-0.199
3.78	-0.205
3.781	-0.206
3.782	-0.203
3.783	-0.203
3.784	-0.211
3.785	-0.225
3.786	-0.24
3.787	-0.254
3.788	-0.268
3.789	-0.284
3.79	-0.299
3.791	-0.308
3.792	-0.311
3.793	-0.306
3.794	-0.289
3.795	-0.251
3.796	-0.191
3.797	-0.11
3.798	-0.015
3.799	0.085
3.8	0.176
3.801	0.25
3.802	0.308
3.803	0.358
3.804	0.401
3.805	0.437
3.806	0.466
3.807	0.495
3.808	0.523
3.809	0.549
3.81	0.572
3.811	0.59
3.812	0.608
3.813	0.63
3.814	0.656
3.815	0.679
3.816	0.69
3.817	0.686
3.818	0.67
3.819	0.653
3.82	0.642
3.821	0.637
3.822	0.63
3.823	0.615
3.824	0.591
3.825	0.557
3.826	0.507
3.827	0.44
3.828	0.366
3.829	0.305
3.83	0.264
3.831	0.234
3.832	0.203
3.833	0.166
3.834	0.135
3.835	0.121
3.836	0.13
3.837	0.151
3.838	0.175
3.839	0.191
3.84	0.198
3.841	0.201
3.842	0.202
3.843	0.203
3.844	0.195
3.845	0.173
3.846	0.14
3.847	0.104
3.848	0.068
3.849	0.03
3.85	-0.01
3.851	-0.044
3.852	-0.069
3.853	-0.083
3.854	-0.09
3.855	-0.088
3.856	-0.073
3.857	-0.048
3.858	-0.024
3.859	-0.008
3.86	0.002
3.861	0.013
3.862	0.027
3.863	0.042
3.864	0.05
3.865	0.048
3.866	0.035
3.867	0.015
3.868	-0.007
3.869	-0.025
3.87	-0.038
3.871	-0.049
3.872	-0.063
3.873	-0.076
3.874	-0.084
3.875	-0.083
3.876	-0.074
3.877	-0.059
3.878	-0.043
3.879	-0.031
3.88	-0.021
3.881	-0.009
3.882	0.008
3.883	0.024
3.884	0.032
3.885	0.031
3.886	0.025
3.887	0.018
3.888	0.008
3.889	-0.013
3.89	-0.045
3.891	-0.079
3.892	-0.104
3.893	-0.112
3.894	-0.108
3.895	-0.1
3.896	-0.095
3.897	-0.091
3.898	-0.082
3.899	-0.063
3.9	-0.038
3.901	-0.014
3.902	0.005
3.903	0.016
3.904	0.021
3.905	0.023
3.906	0.024
3.907	0.026
3.908	0.024
3.909	0.012
3.91	-0.016
3.911	-0.055
3.912	-0.095
3.913	-0.131
3.914	-0.158
3.915	-0.173
3.916	-0.175
3.917	-0.164
3.918	-0.144
3.919	-0.112
3.92	-0.066
3.921	-0.012
3.922	0.035
3.923	0.065
3.924	0.076
3.925	0.074
3.926	0.057
3.927	0.027
3.928	-0.01
3.929	-0.041
3.93	-0.061
3.931	-0.073
3.932	-0.088
3.933	-0.11
3.934	-0.135
3.935	-0.152
3.936	-0.16
3.937	-0.157
3.938	-0.138
3.939	-0.101
3.94	-0.057
3.941	-0.023
3.942	-0.009
3.943	-0.007
3.944	-0.007
3.945	-0.003
3.946	0.003
3.947	0.003
3.948	-0.012
3.949	-0.044
3.95	-0.085
3.951	-0.118
3.952	-0.128
3.953	-0.117
3.954	-0.103
3.955	-0.099
3.956	-0.106
3.957	-0.116
3.958	-0.118
3.959	-0.111
3.96	-0.096
3.961	-0.078
3.962	-0.061
3.963	-0.042
3.964	-0.027
3.965	-0.02
3.966	-0.024
3.967	-0.035
3.968	-0.054
3.969	-0.08
3.97	-0.105
3.971	-0.119
3.972	-0.122
3.973	-0.121
3.974	-0.125
3.975	-0.135
3.976	-0.146
3.977	-0.156
3.978	-0.159
3.979	-0.144
3.98	-0.111
3.981	-0.067
3.982	-0.032
3.983	-0.014
3.984	-0.012
3.985	-0.021
3.986	-0.037
3.987	-0.058
3.988	-0.083
3.989	-0.111
3.99	-0.143
3.991	-0.177
3.992	-0.206
3.993	-0.221
3.994	-0.217
3.995	-0.2
3.996	-0.175
3.997	-0.15
3.998	-0.126
3.999	-0.104
4	-0.084
4.001	-0.066
4.002	-0.052
4.003	-0.047
4.004	-0.052
4.005	-0.061
4.006	-0.063
4.007	-0.064
4.008	-0.073
4.009	-0.097
4.01	-0.131
4.011	-0.169
4.012	-0.202
4.013	-0.226
4.014	-0.232
4.015	-0.217
4.016	-0.191
4.017	-0.163
4.018	-0.144
4.019	-0.134
4.02	-0.126
4.021	-0.117
4.022	-0.108
4.023	-0.098
4.024	-0.089
4.025	-0.075
4.026	-0.057
4.027	-0.039
4.028	-0.025
4.029	-0.023
4.03	-0.04
4.031	-0.071
4.032	-0.105
4.033	-0.13
4.034	-0.142
4.035	-0.147
4.036	-0.148
4.037	-0.144
4.038	-0.129
4.039	-0.104
4.04	-0.075
4.041	-0.057
4.042	-0.053
4.043	-0.056
4.044	-0.057
4.045	-0.056
4.046	-0.057
4.047	-0.063
4.048	-0.071
4.049	-0.08
4.05	-0.097
4.051	-0.126
4.052	-0.161
4.053	-0.189
4.054	-0.203
4.055	-0.204
4.056	-0.194
4.057	-0.174
4.058	-0.145
4.059	-0.109
4.06	-0.062
4.061	-0.006
4.062	0.045
4.063	0.076
4.064	0.079
4.065	0.063
4.066	0.037
4.067	0.007
4.068	-0.022
4.069	-0.047
4.07	-0.066
4.071	-0.077
4.072	-0.084
4.073	-0.089
4.074	-0.096
4.075	-0.099
4.076	-0.098
4.077	-0.093
4.078	-0.086
4.079	-0.074
4.08	-0.053
4.081	-0.027
4.082	0.002
4.083	0.028
4.084	0.046
4.085	0.052
4.086	0.044
4.087	0.026
4.088	0.004
4.089	-0.01
4.09	-0.017
4.091	-0.023
4.092	-0.029
4.093	-0.034
4.094	-0.037
4.095	-0.044
4.096	-0.053
4.097	-0.06
4.098	-0.055
4.099	-0.034
4.1	-0.002
4.101	0.029
4.102	0.054
4.103	0.07
4.104	0.079
4.105	0.08
4.106	0.067
4.107	0.041
4.108	0.009
4.109	-0.019
4.11	-0.035
4.111	-0.04
4.112	-0.037
4.113	-0.032
4.114	-0.026
4.115	-0.02
4.116	-0.019
4.117	-0.028
4.118	-0.042
4.119	-0.045
4.12	-0.029
4.121	0.004
4.122	0.044
4.123	0.081
4.124	0.109
4.125	0.123
4.126	0.122
4.127	0.108
4.128	0.08
4.129	0.045
4.13	0.009
4.131	-0.016
4.132	-0.029
4.133	-0.036
4.134	-0.045
4.135	-0.053
4.136	-0.05
4.137	-0.034
4.138	-0.01
4.139	0.014
4.14	0.035
4.141	0.05
4.142	0.064
4.143	0.075
4.144	0.082
4.145	0.08
4.146	0.071
4.147	0.054
4.148	0.032
4.149	0.011
4.15	0.002
4.151	0.013
4.152	0.04
4.153	0.067
4.154	0.08
4.155	0.077
4.156	0.067
4.157	0.057
4.158	0.051
4.159	0.051
4.16	0.059
4.161	0.073
4.162	0.085
4.163	0.087
4.164	0.084
4.165	0.082
4.166	0.085
4.167	0.091
4.168	0.09
4.169	0.079
4.17	0.056
4.171	0.029
4.172	0.001
4.173	-0.02
4.174	-0.032
4.175	-0.032
4.176	-0.019
4.177	0.005
4.178	0.031
4.179	0.05
4.18	0.059
4.181	0.065
4.182	0.077
4.183	0.097
4.184	0.119
4.185	0.13
4.186	0.123
4.187	0.102
4.188	0.076
4.189	0.051
4.19	0.03
4.191	0.008
4.192	-0.014
4.193	-0.031
4.194	-0.039
4.195	-0.036
4.196	-0.029
4.197	-0.024
4.198	-0.022
4.199	-0.021
4.2	-0.014
4.201	0
4.202	0.023
4.203	0.051
4.204	0.075
4.205	0.087
4.206	0.086
4.207	0.077
4.208	0.061
4.209	0.035
4.21	-0.003
4.211	-0.042
4.212	-0.069
4.213	-0.08
4.214	-0.078
4.215	-0.066
4.216	-0.045
4.217	-0.017
4.218	0.016
4.219	0.045
4.22	0.066
4.221	0.08
4.222	0.089
4.223	0.097
4.224	0.109
4.225	0.122
4.226	0.128
4.227	0.115
4.228	0.082
4.229	0.033
4.23	-0.022
4.231	-0.068
4.232	-0.093
4.233	-0.095
4.234	-0.077
4.235	-0.051
4.236	-0.03
4.237	-0.018
4.238	-0.015
4.239	-0.01
4.24	0.002
4.241	0.019
4.242	0.038
4.243	0.062
4.244	0.088
4.245	0.111
4.246	0.122
4.247	0.121
4.248	0.112
4.249	0.095
4.25	0.066
4.251	0.02
4.252	-0.041
4.253	-0.104
4.254	-0.152
4.255	-0.167
4.256	-0.145
4.257	-0.1
4.258	-0.051
4.259	-0.01
4.26	0.024
4.261	0.057
4.262	0.09
4.263	0.113
4.264	0.117
4.265	0.105
4.266	0.086
4.267	0.066
4.268	0.045
4.269	0.024
4.27	0.006
4.271	-0.01
4.272	-0.032
4.273	-0.064
4.274	-0.099
4.275	-0.126
4.276	-0.133
4.277	-0.114
4.278	-0.072
4.279	-0.018
4.28	0.03
4.281	0.064
4.282	0.081
4.283	0.081
4.284	0.07
4.285	0.056
4.286	0.047
4.287	0.04
4.288	0.029
4.289	0.005
4.29	-0.027
4.291	-0.059
4.292	-0.082
4.293	-0.096
4.294	-0.101
4.295	-0.095
4.296	-0.076
4.297	-0.049
4.298	-0.022
4.299	-0.001
4.3	0.015
4.301	0.026
4.302	0.032
4.303	0.033
4.304	0.037
4.305	0.052
4.306	0.07
4.307	0.08
4.308	0.076
4.309	0.063
4.31	0.042
4.311	0.016
4.312	-0.014
4.313	-0.039
4.314	-0.055
4.315	-0.06
4.316	-0.059
4.317	-0.058
4.318	-0.056
4.319	-0.05
4.32	-0.035
4.321	-0.012
4.322	0.016
4.323	0.044
4.324	0.065
4.325	0.074
4.326	0.072
4.327	0.061
4.328	0.04
4.329	0.011
4.33	-0.016
4.331	-0.029
4.332	-0.025
4.333	-0.012
4.334	-0.008
4.335	-0.017
4.336	-0.035
4.337	-0.05
4.338	-0.049
4.339	-0.024
4.34	0.021
4.341	0.072
4.342	0.11
4.343	0.127
4.344	0.125
4.345	0.109
4.346	0.084
4.347	0.056
4.348	0.03
4.349	0.009
4.35	-0.007
4.351	-0.025
4.352	-0.045
4.353	-0.067
4.354	-0.087
4.355	-0.097
4.356	-0.095
4.357	-0.085
4.358	-0.068
4.359	-0.044
4.36	-0.017
4.361	0.009
4.362	0.032
4.363	0.052
4.364	0.063
4.365	0.059
4.366	0.046
4.367	0.031
4.368	0.022
4.369	0.012
4.37	-0.003
4.371	-0.023
4.372	-0.038
4.373	-0.04
4.374	-0.03
4.375	-0.022
4.376	-0.022
4.377	-0.025
4.378	-0.022
4.379	-0.009
4.38	0.013
4.381	0.041
4.382	0.067
4.383	0.083
4.384	0.086
4.385	0.078
4.386	0.066
4.387	0.053
4.388	0.038
4.389	0.016
4.39	-0.013
4.391	-0.041
4.392	-0.06
4.393	-0.072
4.394	-0.079
4.395	-0.084
4.396	-0.086
4.397	-0.082
4.398	-0.073
4.399	-0.059
4.4	-0.038
4.401	-0.01
4.402	0.021
4.403	0.05
4.404	0.075
4.405	0.094
4.406	0.101
4.407	0.094
4.408	0.072
4.409	0.041
4.41	0.008
4.411	-0.026
4.412	-0.058
4.413	-0.077
4.414	-0.078
4.415	-0.064
4.416	-0.045
4.417	-0.03
4.418	-0.018
4.419	-0.005
4.42	0.014
4.421	0.039
4.422	0.06
4.423	0.072
4.424	0.076
4.425	0.077
4.426	0.068
4.427	0.049
4.428	0.026
4.429	0.009
4.43	-0.001
4.431	-0.006
4.432	-0.008
4.433	-0.009
4.434	-0.009
4.435	-0.01
4.436	-0.009
4.437	-0.006
4.438	0
4.439	0.009
4.44	0.021
4.441	0.033
4.442	0.045
4.443	0.058
4.444	0.066
4.445	0.062
4.446	0.046
4.447	0.025
4.448	0.011
4.449	0.001
4.45	-0.015
4.451	-0.037
4.452	-0.057
4.453	-0.068
4.454	-0.071
4.455	-0.066
4.456	-0.05
4.457	-0.022
4.458	0.011
4.459	0.039
4.46	0.058
4.461	0.069
4.462	0.074
4.463	0.074
4.464	0.071
4.465	0.069
4.466	0.071
4.467	0.076
4.468	0.079
4.469	0.071
4.47	0.045
4.471	0.01
4.472	-0.02
4.473	-0.034
4.474	-0.034
4.475	-0.027
4.476	-0.023
4.477	-0.021
4.478	-0.017
4.479	-0.015
4.48	-0.016
4.481	-0.015
4.482	0.004
4.483	0.042
4.484	0.087
4.485	0.116
4.486	0.117
4.487	0.097
4.488	0.07
4.489	0.047
4.49	0.031
4.491	0.017
4.492	-0.002
4.493	-0.027
4.494	-0.051
4.495	-0.064
4.496	-0.062
4.497	-0.044
4.498	-0.015
4.499	0.021
4.5	0.055
4.501	0.08
4.502	0.095
4.503	0.102
4.504	0.101
4.505	0.094
4.506	0.084
4.507	0.072
4.508	0.059
4.509	0.04
4.51	0.017
4.511	-0.009
4.512	-0.037
4.513	-0.062
4.514	-0.081
4.515	-0.086
4.516	-0.07
4.517	-0.037
4.518	0.001
4.519	0.03
4.52	0.044
4.521	0.051
4.522	0.059
4.523	0.068
4.524	0.073
4.525	0.072
4.526	0.071
4.527	0.074
4.528	0.078
4.529	0.073
4.53	0.057
4.531	0.036
4.532	0.016
4.533	-0.002
4.534	-0.023
4.535	-0.046
4.536	-0.064
4.537	-0.068
4.538	-0.055
4.539	-0.031
4.54	-0.006
4.541	0.011
4.542	0.025
4.543	0.042
4.544	0.066
4.545	0.089
4.546	0.098
4.547	0.089
4.548	0.071
4.549	0.052
4.55	0.036
4.551	0.018
4.552	-0.001
4.553	-0.017
4.554	-0.03
4.555	-0.038
4.556	-0.039
4.557	-0.026
4.558	-0.001
4.559	0.031
4.56	0.058
4.561	0.073
4.562	0.079
4.563	0.087
4.564	0.1
4.565	0.11
4.566	0.107
4.567	0.092
4.568	0.07
4.569	0.042
4.57	0.007
4.571	-0.034
4.572	-0.07
4.573	-0.088
4.574	-0.084
4.575	-0.069
4.576	-0.052
4.577	-0.038
4.578	-0.022
4.579	-0.005
4.58	0.012
4.581	0.026
4.582	0.037
4.583	0.049
4.584	0.06
4.585	0.066
4.586	0.063
4.587	0.057
4.588	0.051
4.589	0.041
4.59	0.026
4.591	0.011
4.592	-0.002
4.593	-0.016
4.594	-0.04
4.595	-0.065
4.596	-0.077
4.597	-0.068
4.598	-0.048
4.599	-0.029
4.6	-0.014
4.601	0.007
4.602	0.043
4.603	0.088
4.604	0.126
4.605	0.139
4.606	0.126
4.607	0.091
4.608	0.05
4.609	0.014
4.61	-0.009
4.611	-0.023
4.612	-0.038
4.613	-0.059
4.614	-0.079
4.615	-0.084
4.616	-0.07
4.617	-0.046
4.618	-0.026
4.619	-0.011
4.62	0.008
4.621	0.037
4.622	0.067
4.623	0.085
4.624	0.084
4.625	0.067
4.626	0.043
4.627	0.021
4.628	0.007
4.629	0.001
4.63	0.002
4.631	0.003
4.632	0.001
4.633	-0.006
4.634	-0.015
4.635	-0.021
4.636	-0.022
4.637	-0.02
4.638	-0.012
4.639	0.007
4.64	0.035
4.641	0.06
4.642	0.069
4.643	0.061
4.644	0.052
4.645	0.053
4.646	0.057
4.647	0.057
4.648	0.048
4.649	0.032
4.65	0.01
4.651	-0.015
4.652	-0.036
4.653	-0.051
4.654	-0.06
4.655	-0.066
4.656	-0.066
4.657	-0.055
4.658	-0.033
4.659	-0.004
4.66	0.028
4.661	0.053
4.662	0.068
4.663	0.07
4.664	0.066
4.665	0.062
4.666	0.062
4.667	0.063
4.668	0.058
4.669	0.04
4.67	0.007
4.671	-0.032
4.672	-0.066
4.673	-0.084
4.674	-0.087
4.675	-0.084
4.676	-0.077
4.677	-0.064
4.678	-0.037
4.679	-0.002
4.68	0.034
4.681	0.061
4.682	0.077
4.683	0.085
4.684	0.086
4.685	0.08
4.686	0.068
4.687	0.056
4.688	0.048
4.689	0.042
4.69	0.033
4.691	0.011
4.692	-0.029
4.693	-0.073
4.694	-0.101
4.695	-0.101
4.696	-0.077
4.697	-0.044
4.698	-0.012
4.699	0.014
4.7	0.039
4.701	0.06
4.702	0.074
4.703	0.077
4.704	0.071
4.705	0.065
4.706	0.061
4.707	0.055
4.708	0.046
4.709	0.032
4.71	0.012
4.711	-0.015
4.712	-0.043
4.713	-0.069
4.714	-0.086
4.715	-0.091
4.716	-0.085
4.717	-0.071
4.718	-0.05
4.719	-0.026
4.72	-0.004
4.721	0.012
4.722	0.02
4.723	0.027
4.724	0.038
4.725	0.054
4.726	0.065
4.727	0.062
4.728	0.045
4.729	0.026
4.73	0.013
4.731	0.002
4.732	-0.012
4.733	-0.03
4.734	-0.046
4.735	-0.054
4.736	-0.051
4.737	-0.04
4.738	-0.027
4.739	-0.02
4.74	-0.014
4.741	-0.002
4.742	0.019
4.743	0.043
4.744	0.064
4.745	0.077
4.746	0.082
4.747	0.078
4.748	0.064
4.749	0.038
4.75	-0.002
4.751	-0.049
4.752	-0.088
4.753	-0.107
4.754	-0.108
4.755	-0.102
4.756	-0.096
4.757	-0.081
4.758	-0.051
4.759	-0.013
4.76	0.017
4.761	0.037
4.762	0.055
4.763	0.08
4.764	0.103
4.765	0.111
4.766	0.097
4.767	0.067
4.768	0.031
4.769	0.001
4.77	-0.013
4.771	-0.012
4.772	-0.008
4.773	-0.014
4.774	-0.031
4.775	-0.049
4.776	-0.059
4.777	-0.059
4.778	-0.054
4.779	-0.045
4.78	-0.03
4.781	-0.01
4.782	0.006
4.783	0.02
4.784	0.04
4.785	0.068
4.786	0.088
4.787	0.088
4.788	0.068
4.789	0.042
4.79	0.02
4.791	-0.001
4.792	-0.021
4.793	-0.04
4.794	-0.056
4.795	-0.066
4.796	-0.07
4.797	-0.066
4.798	-0.05
4.799	-0.026
4.8	-0.004
4.801	0.011
4.802	0.021
4.803	0.031
4.804	0.045
4.805	0.06
4.806	0.07
4.807	0.068
4.808	0.053
4.809	0.031
4.81	0.004
4.811	-0.027
4.812	-0.061
4.813	-0.091
4.814	-0.11
4.815	-0.113
4.816	-0.102
4.817	-0.079
4.818	-0.05
4.819	-0.022
4.82	-0.002
4.821	0.015
4.822	0.035
4.823	0.057
4.824	0.075
4.825	0.081
4.826	0.072
4.827	0.053
4.828	0.032
4.829	0.015
4.83	0.003
4.831	-0.007
4.832	-0.017
4.833	-0.032
4.834	-0.058
4.835	-0.092
4.836	-0.118
4.837	-0.117
4.838	-0.085
4.839	-0.038
4.84	0.006
4.841	0.036
4.842	0.052
4.843	0.058
4.844	0.06
4.845	0.061
4.846	0.063
4.847	0.062
4.848	0.05
4.849	0.026
4.85	-0.006
4.851	-0.036
4.852	-0.058
4.853	-0.071
4.854	-0.081
4.855	-0.092
4.856	-0.099
4.857	-0.096
4.858	-0.086
4.859	-0.071
4.86	-0.052
4.861	-0.028
4.862	-0.002
4.863	0.024
4.864	0.044
4.865	0.052
4.866	0.046
4.867	0.033
4.868	0.021
4.869	0.014
4.87	0.004
4.871	-0.011
4.872	-0.026
4.873	-0.039
4.874	-0.05
4.875	-0.063
4.876	-0.074
4.877	-0.074
4.878	-0.063
4.879	-0.042
4.88	-0.019
4.881	-0.002
4.882	0.001
4.883	-0.008
4.884	-0.018
4.885	-0.019
4.886	-0.013
4.887	-0.01
4.888	-0.015
4.889	-0.018
4.89	-0.015
4.891	-0.009
4.892	-0.011
4.893	-0.02
4.894	-0.033
4.895	-0.049
4.896	-0.063
4.897	-0.07
4.898	-0.066
4.899	-0.048
4.9	-0.022
4.901	0.01
4.902	0.041
4.903	0.066
4.904	0.083
4.905	0.093
4.906	0.1
4.907	0.105
4.908	0.106
4.909	0.096
4.91	0.07
4.911	0.033
4.912	-0.001
4.913	-0.023
4.914	-0.038
4.915	-0.049
4.916	-0.056
4.917	-0.055
4.918	-0.039
4.919	-0.013
4.92	0.015
4.921	0.037
4.922	0.052
4.923	0.063
4.924	0.07
4.925	0.076
4.926	0.085
4.927	0.098
4.928	0.105
4.929	0.098
4.93	0.075
4.931	0.042
4.932	0.006
4.933	-0.024
4.934	-0.043
4.935	-0.053
4.936	-0.054
4.937	-0.044
4.938	-0.023
4.939	0.004
4.94	0.034
4.941	0.062
4.942	0.084
4.943	0.097
4.944	0.103
4.945	0.105
4.946	0.102
4.947	0.086
4.948	0.051
4.949	0.009
4.95	-0.023
4.951	-0.039
4.952	-0.042
4.953	-0.045
4.954	-0.052
4.955	-0.057
4.956	-0.055
4.957	-0.041
4.958	-0.018
4.959	0.011
4.96	0.042
4.961	0.07
4.962	0.09
4.963	0.098
4.964	0.095
4.965	0.087
4.966	0.081
4.967	0.077
4.968	0.071
4.969	0.059
4.97	0.038
4.971	0.008
4.972	-0.028
4.973	-0.062
4.974	-0.089
4.975	-0.106
4.976	-0.115
4.977	-0.119
4.978	-0.124
4.979	-0.131
4.98	-0.141
4.981	-0.152
4.982	-0.161
4.983	-0.167
4.984	-0.17
4.985	-0.168
4.986	-0.166
4.987	-0.171
4.988	-0.19
4.989	-0.221
4.99	-0.256
4.991	-0.29
4.992	-0.322
4.993	-0.348
4.994	-0.363
4.995	-0.363
4.996	-0.351
4.997	-0.33
4.998	-0.299
4.999	-0.254
5	-0.191
5.001	-0.114
5.002	-0.028
5.003	0.06
5.004	0.145
5.005	0.217
5.006	0.268
5.007	0.295
5.008	0.308
5.009	0.318
5.01	0.331
5.011	0.349
5.012	0.37
5.013	0.396
5.014	0.429
5.015	0.47
5.016	0.52
5.017	0.575
5.018	0.628
5.019	0.677
5.02	0.723
5.021	0.76
5.022	0.783
5.023	0.789
5.024	0.777
5.025	0.747
5.026	0.703
5.027	0.651
5.028	0.601
5.029	0.558
5.03	0.519
5.031	0.479
5.032	0.429
5.033	0.366
5.034	0.297
5.035	0.238
5.036	0.2
5.037	0.184
5.038	0.181
5.039	0.187
5.04	0.2
5.041	0.217
5.042	0.228
5.043	0.225
5.044	0.202
5.045	0.165
5.046	0.129
5.047	0.109
5.048	0.105
5.049	0.108
5.05	0.102
5.051	0.08
5.052	0.048
5.053	0.018
5.054	-0.004
5.055	-0.027
5.056	-0.056
5.057	-0.084
5.058	-0.099
5.059	-0.092
5.06	-0.065
5.061	-0.023
5.062	0.019
5.063	0.05
5.064	0.067
5.065	0.079
5.066	0.083
5.067	0.068
5.068	0.035
5.069	-0.004
5.07	-0.04
5.071	-0.074
5.072	-0.104
5.073	-0.125
5.074	-0.131
5.075	-0.125
5.076	-0.11
5.077	-0.087
5.078	-0.062
5.079	-0.042
5.08	-0.033
5.081	-0.032
5.082	-0.031
5.083	-0.024
5.084	-0.01
5.085	0.005
5.086	0.014
5.087	0.014
5.088	0.005
5.089	-0.01
5.09	-0.028
5.091	-0.049
5.092	-0.067
5.093	-0.081
5.094	-0.091
5.095	-0.094
5.096	-0.087
5.097	-0.068
5.098	-0.043
5.099	-0.025
5.1	-0.017
5.101	-0.02
5.102	-0.03
5.103	-0.046
5.104	-0.061
5.105	-0.07
5.106	-0.07
5.107	-0.063
5.108	-0.053
5.109	-0.048
5.11	-0.051
5.111	-0.064
5.112	-0.086
5.113	-0.111
5.114	-0.134
5.115	-0.147
5.116	-0.149
5.117	-0.142
5.118	-0.129
5.119	-0.111
5.12	-0.088
5.121	-0.063
5.122	-0.035
5.123	-0.01
5.124	0.006
5.125	0.011
5.126	0.01
5.127	0.003
5.128	-0.008
5.129	-0.025
5.13	-0.044
5.131	-0.058
5.132	-0.06
5.133	-0.053
5.134	-0.053
5.135	-0.069
5.136	-0.1
5.137	-0.131
5.138	-0.148
5.139	-0.142
5.14	-0.114
5.141	-0.071
5.142	-0.026
5.143	0.012
5.144	0.035
5.145	0.038
5.146	0.022
5.147	-0.002
5.148	-0.025
5.149	-0.047
5.15	-0.072
5.151	-0.103
5.152	-0.134
5.153	-0.155
5.154	-0.164
5.155	-0.163
5.156	-0.16
5.157	-0.153
5.158	-0.138
5.159	-0.114
5.16	-0.089
5.161	-0.071
5.162	-0.059
5.163	-0.048
5.164	-0.034
5.165	-0.02
5.166	-0.011
5.167	-0.008
5.168	-0.014
5.169	-0.032
5.17	-0.06
5.171	-0.09
5.172	-0.115
5.173	-0.132
5.174	-0.14
5.175	-0.143
5.176	-0.144
5.177	-0.145
5.178	-0.146
5.179	-0.14
5.18	-0.123
5.181	-0.092
5.182	-0.053
5.183	-0.02
5.184	-0.001
5.185	0.001
5.186	-0.006
5.187	-0.021
5.188	-0.047
5.189	-0.085
5.19	-0.129
5.191	-0.165
5.192	-0.184
5.193	-0.184
5.194	-0.174
5.195	-0.169
5.196	-0.175
5.197	-0.184
5.198	-0.179
5.199	-0.155
5.2	-0.12
5.201	-0.089
5.202	-0.068
5.203	-0.06
5.204	-0.063
5.205	-0.07
5.206	-0.074
5.207	-0.072
5.208	-0.072
5.209	-0.082
5.21	-0.104
5.211	-0.132
5.212	-0.162
5.213	-0.19
5.214	-0.211
5.215	-0.223
5.216	-0.225
5.217	-0.219
5.218	-0.21
5.219	-0.198
5.22	-0.181
5.221	-0.155
5.222	-0.122
5.223	-0.088
5.224	-0.061
5.225	-0.045
5.226	-0.04
5.227	-0.043
5.228	-0.05
5.229	-0.061
5.23	-0.085
5.231	-0.119
5.232	-0.149
5.233	-0.161
5.234	-0.158
5.235	-0.156
5.236	-0.169
5.237	-0.184
5.238	-0.182
5.239	-0.159
5.24	-0.128
5.241	-0.1
5.242	-0.08
5.243	-0.063
5.244	-0.048
5.245	-0.032
5.246	-0.021
5.247	-0.022
5.248	-0.038
5.249	-0.065
5.25	-0.099
5.251	-0.138
5.252	-0.178
5.253	-0.208
5.254	-0.215
5.255	-0.198
5.256	-0.167
5.257	-0.134
5.258	-0.102
5.259	-0.067
5.26	-0.034
5.261	-0.011
5.262	-0.004
5.263	-0.004
5.264	-0.003
5.265	0
5.266	-0.001
5.267	-0.011
5.268	-0.026
5.269	-0.044
5.27	-0.06
5.271	-0.08
5.272	-0.105
5.273	-0.131
5.274	-0.15
5.275	-0.16
5.276	-0.164
5.277	-0.165
5.278	-0.161
5.279	-0.151
5.28	-0.133
5.281	-0.104
5.282	-0.064
5.283	-0.018
5.284	0.029
5.285	0.066
5.286	0.083
5.287	0.072
5.288	0.039
5.289	0
5.29	-0.036
5.291	-0.065
5.292	-0.088
5.293	-0.102
5.294	-0.105
5.295	-0.099
5.296	-0.088
5.297	-0.07
5.298	-0.048
5.299	-0.029
5.3	-0.017
5.301	-0.009
5.302	0.003
5.303	0.017
5.304	0.023
5.305	0.019
5.306	0.016
5.307	0.016
5.308	0.017
5.309	0.011
5.31	-0.003
5.311	-0.016
5.312	-0.025
5.313	-0.035
5.314	-0.052
5.315	-0.072
5.316	-0.087
5.317	-0.09
5.318	-0.079
5.319	-0.057
5.32	-0.023
5.321	0.023
5.322	0.079
5.323	0.137
5.324	0.179
5.325	0.188
5.326	0.16
5.327	0.109
5.328	0.057
5.329	0.022
5.33	0.003
5.331	-0.007
5.332	-0.016
5.333	-0.024
5.334	-0.032
5.335	-0.039
5.336	-0.043
5.337	-0.041
5.338	-0.033
5.339	-0.019
5.34	-0.004
5.341	0.01
5.342	0.029
5.343	0.058
5.344	0.097
5.345	0.132
5.346	0.146
5.347	0.132
5.348	0.093
5.349	0.04
5.35	-0.012
5.351	-0.055
5.352	-0.08
5.353	-0.088
5.354	-0.084
5.355	-0.072
5.356	-0.056
5.357	-0.037
5.358	-0.018
5.359	-0.002
5.36	0.012
5.361	0.024
5.362	0.034
5.363	0.048
5.364	0.076
5.365	0.112
5.366	0.137
5.367	0.133
5.368	0.101
5.369	0.062
5.37	0.031
5.371	0.015
5.372	0.008
5.373	0.002
5.374	-0.011
5.375	-0.029
5.376	-0.042
5.377	-0.042
5.378	-0.028
5.379	-0.006
5.38	0.019
5.381	0.042
5.382	0.063
5.383	0.079
5.384	0.092
5.385	0.104
5.386	0.114
5.387	0.115
5.388	0.102
5.389	0.079
5.39	0.054
5.391	0.033
5.392	0.015
5.393	-0.002
5.394	-0.005
5.395	0.008
5.396	0.027
5.397	0.035
5.398	0.03
5.399	0.025
5.4	0.034
5.401	0.058
5.402	0.084
5.403	0.102
5.404	0.114
5.405	0.122
5.406	0.123
5.407	0.109
5.408	0.078
5.409	0.036
5.41	-0.006
5.411	-0.036
5.412	-0.05
5.413	-0.054
5.414	-0.058
5.415	-0.06
5.416	-0.052
5.417	-0.032
5.418	-0.005
5.419	0.023
5.42	0.05
5.421	0.076
5.422	0.096
5.423	0.107
5.424	0.11
5.425	0.107
5.426	0.101
5.427	0.092
5.428	0.079
5.429	0.064
5.43	0.047
5.431	0.028
5.432	0.004
5.433	-0.022
5.434	-0.044
5.435	-0.058
5.436	-0.063
5.437	-0.06
5.438	-0.051
5.439	-0.036
5.44	-0.016
5.441	0.009
5.442	0.035
5.443	0.056
5.444	0.066
5.445	0.063
5.446	0.051
5.447	0.039
5.448	0.029
5.449	0.019
5.45	0.006
5.451	-0.013
5.452	-0.035
5.453	-0.056
5.454	-0.073
5.455	-0.08
5.456	-0.075
5.457	-0.059
5.458	-0.039
5.459	-0.021
5.46	-0.009
5.461	-0.001
5.462	0.01
5.463	0.028
5.464	0.052
5.465	0.069
5.466	0.066
5.467	0.044
5.468	0.021
5.469	0.012
5.47	0.013
5.471	0.014
5.472	0.007
5.473	-0.008
5.474	-0.029
5.475	-0.055
5.476	-0.081
5.477	-0.094
5.478	-0.089
5.479	-0.07
5.48	-0.048
5.481	-0.028
5.482	-0.005
5.483	0.024
5.484	0.055
5.485	0.08
5.486	0.091
5.487	0.086
5.488	0.068
5.489	0.039
5.49	0.003
5.491	-0.034
5.492	-0.063
5.493	-0.086
5.494	-0.101
5.495	-0.108
5.496	-0.1
5.497	-0.075
5.498	-0.04
5.499	-0.007
5.5	0.018
5.501	0.037
5.502	0.055
5.503	0.07
5.504	0.077
5.505	0.076
5.506	0.064
5.507	0.041
5.508	0.01
5.509	-0.017
5.51	-0.033
5.511	-0.04
5.512	-0.044
5.513	-0.046
5.514	-0.043
5.515	-0.037
5.516	-0.031
5.517	-0.026
5.518	-0.02
5.519	-0.009
5.52	0.006
5.521	0.023
5.522	0.041
5.523	0.06
5.524	0.071
5.525	0.068
5.526	0.048
5.527	0.019
5.528	-0.01
5.529	-0.036
5.53	-0.058
5.531	-0.07
5.532	-0.068
5.533	-0.056
5.534	-0.043
5.535	-0.035
5.536	-0.033
5.537	-0.034
5.538	-0.032
5.539	-0.024
5.54	-0.009
5.541	0.012
5.542	0.035
5.543	0.054
5.544	0.068
5.545	0.072
5.546	0.064
5.547	0.047
5.548	0.03
5.549	0.024
5.55	0.026
5.551	0.024
5.552	0.008
5.553	-0.017
5.554	-0.04
5.555	-0.047
5.556	-0.034
5.557	-0.013
5.558	0.001
5.559	0.002
5.56	-0.003
5.561	-0.001
5.562	0.011
5.563	0.027
5.564	0.041
5.565	0.051
5.566	0.063
5.567	0.072
5.568	0.076
5.569	0.071
5.57	0.057
5.571	0.027
5.572	-0.017
5.573	-0.061
5.574	-0.086
5.575	-0.089
5.576	-0.08
5.577	-0.068
5.578	-0.055
5.579	-0.038
5.58	-0.019
5.581	0.005
5.582	0.029
5.583	0.049
5.584	0.061
5.585	0.067
5.586	0.072
5.587	0.071
5.588	0.06
5.589	0.036
5.59	0.007
5.591	-0.021
5.592	-0.044
5.593	-0.063
5.594	-0.077
5.595	-0.085
5.596	-0.084
5.597	-0.073
5.598	-0.054
5.599	-0.028
5.6	-0.002
5.601	0.02
5.602	0.037
5.603	0.049
5.604	0.055
5.605	0.053
5.606	0.039
5.607	0.019
5.608	0.006
5.609	0.003
5.61	0.002
5.611	-0.007
5.612	-0.022
5.613	-0.041
5.614	-0.059
5.615	-0.075
5.616	-0.086
5.617	-0.083
5.618	-0.066
5.619	-0.038
5.62	-0.004
5.621	0.035
5.622	0.073
5.623	0.095
5.624	0.094
5.625	0.074
5.626	0.048
5.627	0.027
5.628	0.019
5.629	0.018
5.63	0.01
5.631	-0.009
5.632	-0.031
5.633	-0.049
5.634	-0.061
5.635	-0.064
5.636	-0.057
5.637	-0.046
5.638	-0.033
5.639	-0.014
5.64	0.011
5.641	0.037
5.642	0.06
5.643	0.078
5.644	0.094
5.645	0.103
5.646	0.1
5.647	0.085
5.648	0.064
5.649	0.04
5.65	0.013
5.651	-0.017
5.652	-0.046
5.653	-0.068
5.654	-0.08
5.655	-0.082
5.656	-0.071
5.657	-0.049
5.658	-0.022
5.659	-0.001
5.66	0.009
5.661	0.01
5.662	0.008
5.663	0.012
5.664	0.025
5.665	0.037
5.666	0.044
5.667	0.047
5.668	0.05
5.669	0.048
5.67	0.035
5.671	0.012
5.672	-0.013
5.673	-0.032
5.674	-0.042
5.675	-0.044
5.676	-0.042
5.677	-0.041
5.678	-0.043
5.679	-0.047
5.68	-0.045
5.681	-0.027
5.682	0.01
5.683	0.051
5.684	0.077
5.685	0.077
5.686	0.058
5.687	0.033
5.688	0.013
5.689	0.002
5.69	-0.007
5.691	-0.019
5.692	-0.038
5.693	-0.056
5.694	-0.065
5.695	-0.061
5.696	-0.049
5.697	-0.035
5.698	-0.023
5.699	-0.017
5.7	-0.012
5.701	0
5.702	0.018
5.703	0.037
5.704	0.055
5.705	0.068
5.706	0.071
5.707	0.064
5.708	0.049
5.709	0.031
5.71	0.01
5.711	-0.017
5.712	-0.046
5.713	-0.067
5.714	-0.071
5.715	-0.058
5.716	-0.037
5.717	-0.02
5.718	-0.015
5.719	-0.02
5.72	-0.028
5.721	-0.029
5.722	-0.019
5.723	0.002
5.724	0.029
5.725	0.055
5.726	0.074
5.727	0.081
5.728	0.074
5.729	0.058
5.73	0.036
5.731	0.012
5.732	-0.011
5.733	-0.028
5.734	-0.029
5.735	-0.017
5.736	-0.005
5.737	0.001
5.738	0.004
5.739	0.017
5.74	0.04
5.741	0.064
5.742	0.077
5.743	0.075
5.744	0.065
5.745	0.053
5.746	0.042
5.747	0.027
5.748	0.009
5.749	-0.012
5.75	-0.028
5.751	-0.035
5.752	-0.031
5.753	-0.024
5.754	-0.024
5.755	-0.033
5.756	-0.041
5.757	-0.043
5.758	-0.039
5.759	-0.029
5.76	-0.013
5.761	0.011
5.762	0.037
5.763	0.06
5.764	0.075
5.765	0.082
5.766	0.082
5.767	0.079
5.768	0.071
5.769	0.055
5.77	0.033
5.771	0.006
5.772	-0.02
5.773	-0.041
5.774	-0.057
5.775	-0.066
5.776	-0.069
5.777	-0.064
5.778	-0.051
5.779	-0.026
5.78	0.012
5.781	0.051
5.782	0.076
5.783	0.081
5.784	0.075
5.785	0.07
5.786	0.067
5.787	0.061
5.788	0.047
5.789	0.026
5.79	-0.001
5.791	-0.031
5.792	-0.056
5.793	-0.066
5.794	-0.059
5.795	-0.042
5.796	-0.025
5.797	-0.012
5.798	0.001
5.799	0.02
5.8	0.041
5.801	0.063
5.802	0.079
5.803	0.091
5.804	0.093
5.805	0.084
5.806	0.066
5.807	0.044
5.808	0.024
5.809	0.004
5.81	-0.013
5.811	-0.025
5.812	-0.031
5.813	-0.031
5.814	-0.027
5.815	-0.024
5.816	-0.022
5.817	-0.023
5.818	-0.025
5.819	-0.026
5.82	-0.024
5.821	-0.014
5.822	0.006
5.823	0.031
5.824	0.054
5.825	0.07
5.826	0.074
5.827	0.065
5.828	0.044
5.829	0.017
5.83	-0.003
5.831	-0.008
5.832	0.002
5.833	0.018
5.834	0.022
5.835	-0.001
5.836	-0.039
5.837	-0.068
5.838	-0.073
5.839	-0.059
5.84	-0.037
5.841	-0.013
5.842	0.017
5.843	0.052
5.844	0.087
5.845	0.115
5.846	0.134
5.847	0.149
5.848	0.156
5.849	0.14
5.85	0.095
5.851	0.031
5.852	-0.026
5.853	-0.063
5.854	-0.083
5.855	-0.098
5.856	-0.11
5.857	-0.108
5.858	-0.081
5.859	-0.032
5.86	0.021
5.861	0.06
5.862	0.079
5.863	0.085
5.864	0.084
5.865	0.077
5.866	0.066
5.867	0.052
5.868	0.036
5.869	0.017
5.87	-0.001
5.871	-0.013
5.872	-0.021
5.873	-0.028
5.874	-0.037
5.875	-0.051
5.876	-0.069
5.877	-0.086
5.878	-0.091
5.879	-0.079
5.88	-0.051
5.881	-0.016
5.882	0.022
5.883	0.057
5.884	0.086
5.885	0.103
5.886	0.106
5.887	0.095
5.888	0.075
5.889	0.049
5.89	0.022
5.891	-0.002
5.892	-0.019
5.893	-0.034
5.894	-0.055
5.895	-0.082
5.896	-0.1
5.897	-0.097
5.898	-0.071
5.899	-0.031
5.9	0.01
5.901	0.043
5.902	0.066
5.903	0.078
5.904	0.085
5.905	0.09
5.906	0.093
5.907	0.085
5.908	0.062
5.909	0.031
5.91	0.007
5.911	-0.005
5.912	-0.014
5.913	-0.032
5.914	-0.057
5.915	-0.072
5.916	-0.065
5.917	-0.042
5.918	-0.015
5.919	0.006
5.92	0.021
5.921	0.032
5.922	0.039
5.923	0.04
5.924	0.036
5.925	0.035
5.926	0.04
5.927	0.046
5.928	0.044
5.929	0.027
5.93	-0.001
5.931	-0.026
5.932	-0.034
5.933	-0.024
5.934	-0.01
5.935	-0.006
5.936	-0.013
5.937	-0.025
5.938	-0.033
5.939	-0.032
5.94	-0.02
5.941	0.005
5.942	0.035
5.943	0.065
5.944	0.088
5.945	0.099
5.946	0.096
5.947	0.079
5.948	0.049
5.949	0.011
5.95	-0.026
5.951	-0.055
5.952	-0.075
5.953	-0.089
5.954	-0.102
5.955	-0.114
5.956	-0.119
5.957	-0.111
5.958	-0.088
5.959	-0.053
5.96	-0.014
5.961	0.015
5.962	0.028
5.963	0.028
5.964	0.026
5.965	0.029
5.966	0.034
5.967	0.035
5.968	0.033
5.969	0.027
5.97	0.018
5.971	-0.001
5.972	-0.031
5.973	-0.067
5.974	-0.1
5.975	-0.122
5.976	-0.128
5.977	-0.12
5.978	-0.103
5.979	-0.085
5.98	-0.07
5.981	-0.057
5.982	-0.041
5.983	-0.022
5.984	-0.002
5.985	0.013
5.986	0.02
5.987	0.017
5.988	0.006
5.989	-0.012
5.99	-0.031
5.991	-0.049
5.992	-0.066
5.993	-0.08
5.994	-0.087
5.995	-0.081
5.996	-0.057
5.997	-0.022
5.998	0.011
5.999	0.038
6	0.06
6.001	0.075
6.002	0.082
6.003	0.081
6.004	0.076
6.005	0.072
6.006	0.071
6.007	0.069
6.008	0.062
6.009	0.045
6.01	0.024
6.011	0.01
6.012	0.005
6.013	0.005
6.014	0.004
6.015	-0.003
6.016	-0.019
6.017	-0.038
6.018	-0.051
6.019	-0.048
6.02	-0.028
6.021	0.003
6.022	0.032
6.023	0.051
6.024	0.055
6.025	0.051
6.026	0.049
6.027	0.052
6.028	0.052
6.029	0.045
6.03	0.035
6.031	0.032
6.032	0.036
6.033	0.039
6.034	0.032
6.035	0.017
6.036	0.001
6.037	-0.01
6.038	-0.013
6.039	-0.011
6.04	-0.005
6.041	0.005
6.042	0.023
6.043	0.049
6.044	0.078
6.045	0.1
6.046	0.109
6.047	0.104
6.048	0.085
6.049	0.055
6.05	0.022
6.051	-0.006
6.052	-0.025
6.053	-0.035
6.054	-0.04
6.055	-0.043
6.056	-0.047
6.057	-0.051
6.058	-0.052
6.059	-0.048
6.06	-0.035
6.061	-0.014
6.062	0.008
6.063	0.022
6.064	0.025
6.065	0.028
6.066	0.038
6.067	0.047
6.068	0.04
6.069	0.013
6.07	-0.02
6.071	-0.038
6.072	-0.04
6.073	-0.042
6.074	-0.062
6.075	-0.096
6.076	-0.128
6.077	-0.15
6.078	-0.166
6.079	-0.182
6.08	-0.194
6.081	-0.201
6.082	-0.206
6.083	-0.211
6.084	-0.213
6.085	-0.209
6.086	-0.206
6.087	-0.211
6.088	-0.223
6.089	-0.235
6.09	-0.248
6.091	-0.264
6.092	-0.282
6.093	-0.301
6.094	-0.323
6.095	-0.345
6.096	-0.359
6.097	-0.351
6.098	-0.316
6.099	-0.252
6.1	-0.161
6.101	-0.047
6.102	0.079
6.103	0.2
6.104	0.294
6.105	0.349
6.106	0.374
6.107	0.391
6.108	0.417
6.109	0.448
6.11	0.475
6.111	0.497
6.112	0.523
6.113	0.556
6.114	0.593
6.115	0.624
6.116	0.644
6.117	0.653
6.118	0.662
6.119	0.683
6.12	0.715
6.121	0.75
6.122	0.773
6.123	0.773
6.124	0.751
6.125	0.71
6.126	0.66
6.127	0.61
6.128	0.563
6.129	0.516
6.13	0.465
6.131	0.407
6.132	0.346
6.133	0.29
6.134	0.245
6.135	0.207
6.136	0.176
6.137	0.159
6.138	0.163
6.139	0.186
6.14	0.217
6.141	0.242
6.142	0.262
6.143	0.275
6.144	0.271
6.145	0.249
6.146	0.214
6.147	0.178
6.148	0.147
6.149	0.12
6.15	0.097
6.151	0.072
6.152	0.039
6.153	-0.003
6.154	-0.046
6.155	-0.076
6.156	-0.088
6.157	-0.087
6.158	-0.074
6.159	-0.052
6.16	-0.026
6.161	-0.006
6.162	0.004
6.163	0.007
6.164	0.008
6.165	0.011
6.166	0.015
6.167	0.018
6.168	0.012
6.169	-0.008
6.17	-0.035
6.171	-0.054
6.172	-0.057
6.173	-0.057
6.174	-0.069
6.175	-0.093
6.176	-0.115
6.177	-0.122
6.178	-0.114
6.179	-0.095
6.18	-0.069
6.181	-0.037
6.182	-0.002
6.183	0.026
6.184	0.037
6.185	0.027
6.186	0.006
6.187	-0.012
6.188	-0.023
6.189	-0.029
6.19	-0.036
6.191	-0.047
6.192	-0.062
6.193	-0.076
6.194	-0.087
6.195	-0.097
6.196	-0.107
6.197	-0.111
6.198	-0.103
6.199	-0.086
6.2	-0.069
6.201	-0.057
6.202	-0.047
6.203	-0.032
6.204	-0.016
6.205	-0.005
6.206	-0.001
6.207	-0.003
6.208	-0.011
6.209	-0.029
6.21	-0.055
6.211	-0.079
6.212	-0.092
6.213	-0.095
6.214	-0.095
6.215	-0.098
6.216	-0.108
6.217	-0.123
6.218	-0.137
6.219	-0.14
6.22	-0.123
6.221	-0.09
6.222	-0.055
6.223	-0.03
6.224	-0.018
6.225	-0.014
6.226	-0.011
6.227	-0.002
6.228	0.011
6.229	0.018
6.23	0.008
6.231	-0.022
6.232	-0.068
6.233	-0.112
6.234	-0.138
6.235	-0.138
6.236	-0.12
6.237	-0.102
6.238	-0.096
6.239	-0.102
6.24	-0.112
6.241	-0.121
6.242	-0.125
6.243	-0.119
6.244	-0.103
6.245	-0.074
6.246	-0.039
6.247	-0.014
6.248	-0.009
6.249	-0.023
6.25	-0.044
6.251	-0.063
6.252	-0.084
6.253	-0.103
6.254	-0.116
6.255	-0.12
6.256	-0.123
6.257	-0.126
6.258	-0.126
6.259	-0.118
6.26	-0.105
6.261	-0.093
6.262	-0.086
6.263	-0.081
6.264	-0.079
6.265	-0.079
6.266	-0.078
6.267	-0.073
6.268	-0.069
6.269	-0.075
6.27	-0.097
6.271	-0.126
6.272	-0.148
6.273	-0.158
6.274	-0.166
6.275	-0.179
6.276	-0.192
6.277	-0.193
6.278	-0.18
6.279	-0.162
6.28	-0.144
6.281	-0.126
6.282	-0.111
6.283	-0.1
6.284	-0.095
6.285	-0.095
6.286	-0.101
6.287	-0.112
6.288	-0.125
6.289	-0.136
6.29	-0.146
6.291	-0.16
6.292	-0.178
6.293	-0.192
6.294	-0.194
6.295	-0.188
6.296	-0.184
6.297	-0.194
6.298	-0.212
6.299	-0.222
6.3	-0.212
6.301	-0.186
6.302	-0.154
6.303	-0.126
6.304	-0.102
6.305	-0.086
6.306	-0.083
6.307	-0.092
6.308	-0.107
6.309	-0.125
6.31	-0.145
6.311	-0.168
6.312	-0.19
6.313	-0.208
6.314	-0.221
6.315	-0.228
6.316	-0.229
6.317	-0.229
6.318	-0.229
6.319	-0.228
6.32	-0.219
6.321	-0.2
6.322	-0.172
6.323	-0.138
6.324	-0.104
6.325	-0.081
6.326	-0.077
6.327	-0.094
6.328	-0.12
6.329	-0.142
6.33	-0.16
6.331	-0.18
6.332	-0.203
6.333	-0.225
6.334	-0.241
6.335	-0.251
6.336	-0.257
6.337	-0.255
6.338	-0.237
6.339	-0.205
6.34	-0.167
6.341	-0.132
6.342	-0.103
6.343	-0.076
6.344	-0.054
6.345	-0.042
6.346	-0.046
6.347	-0.069
6.348	-0.103
6.349	-0.137
6.35	-0.166
6.351	-0.188
6.352	-0.199
6.353	-0.193
6.354	-0.174
6.355	-0.157
6.356	-0.153
6.357	-0.16
6.358	-0.169
6.359	-0.169
6.36	-0.155
6.361	-0.127
6.362	-0.094
6.363	-0.069
6.364	-0.057
6.365	-0.049
6.366	-0.039
6.367	-0.028
6.368	-0.026
6.369	-0.038
6.37	-0.062
6.371	-0.092
6.372	-0.12
6.373	-0.137
6.374	-0.136
6.375	-0.123
6.376	-0.107
6.377	-0.096
6.378	-0.09
6.379	-0.082
6.38	-0.071
6.381	-0.056
6.382	-0.041
6.383	-0.03
6.384	-0.018
6.385	-0.001
6.386	0.02
6.387	0.037
6.388	0.043
6.389	0.032
6.39	0.004
6.391	-0.033
6.392	-0.064
6.393	-0.081
6.394	-0.09
6.395	-0.1
6.396	-0.113
6.397	-0.121
6.398	-0.118
6.399	-0.105
6.4	-0.086
6.401	-0.062
6.402	-0.031
6.403	0.004
6.404	0.038
6.405	0.067
6.406	0.084
6.407	0.085
6.408	0.068
6.409	0.042
6.41	0.01
6.411	-0.028
6.412	-0.066
6.413	-0.097
6.414	-0.109
6.415	-0.102
6.416	-0.085
6.417	-0.067
6.418	-0.054
6.419	-0.041
6.42	-0.022
6.421	0.001
6.422	0.02
6.423	0.034
6.424	0.045
6.425	0.058
6.426	0.072
6.427	0.08
6.428	0.077
6.429	0.063
6.43	0.045
6.431	0.028
6.432	0.011
6.433	-0.007
6.434	-0.026
6.435	-0.037
6.436	-0.034
6.437	-0.02
6.438	-0.006
6.439	0.004
6.44	0.017
6.441	0.038
6.442	0.066
6.443	0.09
6.444	0.1
6.445	0.098
6.446	0.095
6.447	0.098
6.448	0.102
6.449	0.099
6.45	0.09
6.451	0.08
6.452	0.067
6.453	0.048
6.454	0.026
6.455	0.01
6.456	0.002
6.457	0.001
6.458	0.005
6.459	0.014
6.46	0.028
6.461	0.048
6.462	0.074
6.463	0.099
6.464	0.114
6.465	0.115
6.466	0.107
6.467	0.098
6.468	0.094
6.469	0.093
6.47	0.089
6.471	0.076
6.472	0.06
6.473	0.05
6.474	0.049
6.475	0.054
6.476	0.056
6.477	0.052
6.478	0.045
6.479	0.042
6.48	0.047
6.481	0.054
6.482	0.059
6.483	0.061
6.484	0.068
6.485	0.08
6.486	0.084
6.487	0.075
6.488	0.061
6.489	0.053
6.49	0.053
6.491	0.052
6.492	0.041
6.493	0.022
6.494	-0.001
6.495	-0.021
6.496	-0.036
6.497	-0.046
6.498	-0.048
6.499	-0.039
6.5	-0.021
6.501	0.005
6.502	0.032
6.503	0.057
6.504	0.075
6.505	0.086
6.506	0.092
6.507	0.097
6.508	0.099
6.509	0.093
6.51	0.077
6.511	0.054
6.512	0.034
6.513	0.022
6.514	0.015
6.515	0.008
6.516	-0.002
6.517	-0.011
6.518	-0.013
6.519	-0.009
6.52	-0.002
6.521	0.006
6.522	0.015
6.523	0.027
6.524	0.043
6.525	0.059
6.526	0.07
6.527	0.071
6.528	0.062
6.529	0.045
6.53	0.029
6.531	0.016
6.532	0.007
6.533	-0.003
6.534	-0.017
6.535	-0.032
6.536	-0.041
6.537	-0.042
6.538	-0.04
6.539	-0.033
6.54	-0.011
6.541	0.029
6.542	0.078
6.543	0.119
6.544	0.143
6.545	0.147
6.546	0.139
6.547	0.13
6.548	0.119
6.549	0.098
6.55	0.059
6.551	0.009
6.552	-0.038
6.553	-0.071
6.554	-0.086
6.555	-0.081
6.556	-0.061
6.557	-0.034
6.558	-0.009
6.559	0.011
6.56	0.029
6.561	0.046
6.562	0.056
6.563	0.056
6.564	0.052
6.565	0.053
6.566	0.061
6.567	0.066
6.568	0.06
6.569	0.042
6.57	0.019
6.571	-0.001
6.572	-0.015
6.573	-0.031
6.574	-0.048
6.575	-0.062
6.576	-0.068
6.577	-0.062
6.578	-0.044
6.579	-0.021
6.58	-0.001
6.581	0.014
6.582	0.027
6.583	0.039
6.584	0.046
6.585	0.046
6.586	0.041
6.587	0.032
6.588	0.023
6.589	0.013
6.59	-0.002
6.591	-0.027
6.592	-0.056
6.593	-0.079
6.594	-0.093
6.595	-0.094
6.596	-0.083
6.597	-0.059
6.598	-0.024
6.599	0.01
6.6	0.034
6.601	0.039
6.602	0.031
6.603	0.024
6.604	0.031
6.605	0.054
6.606	0.079
6.607	0.094
6.608	0.095
6.609	0.084
6.61	0.065
6.611	0.038
6.612	0.009
6.613	-0.019
6.614	-0.039
6.615	-0.052
6.616	-0.057
6.617	-0.057
6.618	-0.049
6.619	-0.032
6.62	-0.007
6.621	0.022
6.622	0.05
6.623	0.071
6.624	0.085
6.625	0.095
6.626	0.103
6.627	0.101
6.628	0.08
6.629	0.045
6.63	0.01
6.631	-0.014
6.632	-0.03
6.633	-0.044
6.634	-0.054
6.635	-0.055
6.636	-0.045
6.637	-0.027
6.638	-0.007
6.639	0.016
6.64	0.037
6.641	0.049
6.642	0.051
6.643	0.053
6.644	0.068
6.645	0.091
6.646	0.103
6.647	0.093
6.648	0.063
6.649	0.028
6.65	-0.001
6.651	-0.017
6.652	-0.018
6.653	-0.013
6.654	-0.009
6.655	-0.015
6.656	-0.029
6.657	-0.041
6.658	-0.039
6.659	-0.019
6.66	0.012
6.661	0.039
6.662	0.055
6.663	0.062
6.664	0.067
6.665	0.074
6.666	0.078
6.667	0.08
6.668	0.081
6.669	0.079
6.67	0.07
6.671	0.051
6.672	0.021
6.673	-0.013
6.674	-0.044
6.675	-0.061
6.676	-0.061
6.677	-0.05
6.678	-0.035
6.679	-0.022
6.68	-0.011
6.681	0.004
6.682	0.022
6.683	0.038
6.684	0.048
6.685	0.052
6.686	0.056
6.687	0.063
6.688	0.067
6.689	0.066
6.69	0.058
6.691	0.046
6.692	0.035
6.693	0.023
6.694	0.005
6.695	-0.018
6.696	-0.037
6.697	-0.041
6.698	-0.026
6.699	-0.004
6.7	0.017
6.701	0.035
6.702	0.054
6.703	0.077
6.704	0.101
6.705	0.116
6.706	0.115
6.707	0.1
6.708	0.082
6.709	0.069
6.71	0.054
6.711	0.026
6.712	-0.011
6.713	-0.046
6.714	-0.069
6.715	-0.075
6.716	-0.065
6.717	-0.042
6.718	-0.016
6.719	0.001
6.72	0.006
6.721	0.009
6.722	0.024
6.723	0.047
6.724	0.068
6.725	0.075
6.726	0.072
6.727	0.066
6.728	0.06
6.729	0.054
6.73	0.043
6.731	0.028
6.732	0.007
6.733	-0.019
6.734	-0.044
6.735	-0.058
6.736	-0.057
6.737	-0.044
6.738	-0.027
6.739	-0.013
6.74	-0.004
6.741	0.003
6.742	0.014
6.743	0.027
6.744	0.041
6.745	0.051
6.746	0.052
6.747	0.041
6.748	0.021
6.749	-0.003
6.75	-0.022
6.751	-0.035
6.752	-0.045
6.753	-0.055
6.754	-0.059
6.755	-0.054
6.756	-0.042
6.757	-0.034
6.758	-0.04
6.759	-0.05
6.76	-0.049
6.761	-0.029
6.762	0.002
6.763	0.029
6.764	0.046
6.765	0.058
6.766	0.069
6.767	0.077
6.768	0.079
6.769	0.073
6.77	0.061
6.771	0.044
6.772	0.023
6.773	-0.006
6.774	-0.041
6.775	-0.075
6.776	-0.096
6.777	-0.1
6.778	-0.087
6.779	-0.063
6.78	-0.033
6.781	0.001
6.782	0.038
6.783	0.074
6.784	0.101
6.785	0.115
6.786	0.116
6.787	0.107
6.788	0.09
6.789	0.069
6.79	0.045
6.791	0.019
6.792	-0.009
6.793	-0.033
6.794	-0.051
6.795	-0.06
6.796	-0.06
6.797	-0.051
6.798	-0.039
6.799	-0.03
6.8	-0.023
6.801	-0.014
6.802	0.003
6.803	0.026
6.804	0.051
6.805	0.075
6.806	0.093
6.807	0.097
6.808	0.083
6.809	0.056
6.81	0.026
6.811	0.001
6.812	-0.012
6.813	-0.015
6.814	-0.015
6.815	-0.018
6.816	-0.024
6.817	-0.03
6.818	-0.04
6.819	-0.052
6.82	-0.057
6.821	-0.046
6.822	-0.019
6.823	0.014
6.824	0.039
6.825	0.049
6.826	0.046
6.827	0.034
6.828	0.019
6.829	0.005
6.83	-0.004
6.831	-0.004
6.832	0.002
6.833	0.004
6.834	-0.006
6.835	-0.026
6.836	-0.045
6.837	-0.05
6.838	-0.037
6.839	-0.014
6.84	0.01
6.841	0.022
6.842	0.026
6.843	0.031
6.844	0.044
6.845	0.063
6.846	0.076
6.847	0.073
6.848	0.057
6.849	0.036
6.85	0.02
6.851	0.007
6.852	-0.011
6.853	-0.035
6.854	-0.06
6.855	-0.08
6.856	-0.09
6.857	-0.092
6.858	-0.085
6.859	-0.07
6.86	-0.046
6.861	-0.017
6.862	0.009
6.863	0.026
6.864	0.036
6.865	0.048
6.866	0.063
6.867	0.072
6.868	0.065
6.869	0.044
6.87	0.015
6.871	-0.013
6.872	-0.036
6.873	-0.05
6.874	-0.055
6.875	-0.053
6.876	-0.047
6.877	-0.038
6.878	-0.028
6.879	-0.017
6.88	-0.003
6.881	0.014
6.882	0.033
6.883	0.049
6.884	0.057
6.885	0.055
6.886	0.049
6.887	0.043
6.888	0.04
6.889	0.037
6.89	0.027
6.891	0.009
6.892	-0.013
6.893	-0.028
6.894	-0.036
6.895	-0.045
6.896	-0.056
6.897	-0.063
6.898	-0.061
6.899	-0.052
6.9	-0.04
6.901	-0.027
6.902	-0.013
6.903	-0.001
6.904	0.007
6.905	0.013
6.906	0.019
6.907	0.027
6.908	0.039
6.909	0.053
6.91	0.06
6.911	0.048
6.912	0.014
6.913	-0.029
6.914	-0.067
6.915	-0.09
6.916	-0.095
6.917	-0.092
6.918	-0.09
6.919	-0.091
6.92	-0.086
6.921	-0.067
6.922	-0.032
6.923	0.009
6.924	0.044
6.925	0.068
6.926	0.082
6.927	0.086
6.928	0.076
6.929	0.046
6.93	0.001
6.931	-0.046
6.932	-0.082
6.933	-0.102
6.934	-0.106
6.935	-0.096
6.936	-0.079
6.937	-0.062
6.938	-0.047
6.939	-0.032
6.94	-0.017
6.941	-0.006
6.942	-0.002
6.943	0
6.944	0.009
6.945	0.024
6.946	0.039
6.947	0.048
6.948	0.046
6.949	0.035
6.95	0.018
6.951	-0.001
6.952	-0.023
6.953	-0.047
6.954	-0.072
6.955	-0.094
6.956	-0.105
6.957	-0.1
6.958	-0.081
6.959	-0.055
6.96	-0.029
6.961	-0.008
6.962	0.008
6.963	0.02
6.964	0.025
6.965	0.021
6.966	0.005
6.967	-0.016
6.968	-0.029
6.969	-0.032
6.97	-0.029
6.971	-0.031
6.972	-0.038
6.973	-0.044
6.974	-0.048
6.975	-0.055
6.976	-0.064
6.977	-0.069
6.978	-0.061
6.979	-0.039
6.98	-0.012
6.981	0.011
6.982	0.026
6.983	0.035
6.984	0.043
6.985	0.05
6.986	0.052
6.987	0.051
6.988	0.049
6.989	0.045
6.99	0.035
6.991	0.017
6.992	-0.013
6.993	-0.052
6.994	-0.088
6.995	-0.107
6.996	-0.104
6.997	-0.082
6.998	-0.047
6.999	-0.008
7	0.024
7.001	0.043
7.002	0.052
7.003	0.055
7.004	0.057
7.005	0.062
7.006	0.07
7.007	0.08
7.008	0.085
7.009	0.08
7.01	0.068
7.011	0.054
7.012	0.038
7.013	0.019
7.014	-0.001
7.015	-0.02
7.016	-0.035
7.017	-0.045
7.018	-0.047
7.019	-0.044
7.02	-0.036
7.021	-0.021
7.022	0.004
7.023	0.035
7.024	0.065
7.025	0.094
7.026	0.12
7.027	0.135
7.028	0.127
7.029	0.098
7.03	0.058
7.031	0.02
7.032	-0.01
7.033	-0.035
7.034	-0.057
7.035	-0.076
7.036	-0.09
7.037	-0.096
7.038	-0.09
7.039	-0.07
7.04	-0.034
7.041	0.007
7.042	0.036
7.043	0.044
7.044	0.043
7.045	0.047
7.046	0.061
7.047	0.079
7.048	0.094
7.049	0.101
7.05	0.096
7.051	0.08
7.052	0.06
7.053	0.041
7.054	0.017
7.055	-0.017
7.056	-0.061
7.057	-0.097
7.058	-0.109
7.059	-0.095
7.06	-0.075
7.061	-0.064
7.062	-0.065
7.063	-0.073
7.064	-0.078
7.065	-0.079
7.066	-0.081
7.067	-0.095
7.068	-0.127
7.069	-0.171
7.07	-0.218
7.071	-0.264
7.072	-0.306
7.073	-0.34
7.074	-0.357
7.075	-0.354
7.076	-0.341
7.077	-0.332
7.078	-0.332
7.079	-0.331
7.08	-0.316
7.081	-0.286
7.082	-0.243
7.083	-0.19
7.084	-0.121
7.085	-0.037
7.086	0.057
7.087	0.147
7.088	0.224
7.089	0.281
7.09	0.32
7.091	0.35
7.092	0.38
7.093	0.414
7.094	0.444
7.095	0.466
7.096	0.488
7.097	0.518
7.098	0.554
7.099	0.588
7.1	0.622
7.101	0.661
7.102	0.701
7.103	0.731
7.104	0.746
7.105	0.752
7.106	0.758
7.107	0.766
7.108	0.769
7.109	0.762
7.11	0.741
7.111	0.704
7.112	0.654
7.113	0.596
7.114	0.536
7.115	0.481
7.116	0.435
7.117	0.396
7.118	0.365
7.119	0.341
7.12	0.326
7.121	0.32
7.122	0.321
7.123	0.324
7.124	0.32
7.125	0.302
7.126	0.272
7.127	0.234
7.128	0.198
7.129	0.167
7.13	0.138
7.131	0.108
7.132	0.074
7.133	0.033
7.134	-0.011
7.135	-0.054
7.136	-0.088
7.137	-0.109
7.138	-0.112
7.139	-0.099
7.14	-0.075
7.141	-0.046
7.142	-0.018
7.143	0.007
7.144	0.028
7.145	0.041
7.146	0.045
7.147	0.046
7.148	0.041
7.149	0.023
7.15	-0.012
7.151	-0.058
7.152	-0.099
7.153	-0.126
7.154	-0.134
7.155	-0.131
7.156	-0.126
7.157	-0.12
7.158	-0.106
7.159	-0.083
7.16	-0.058
7.161	-0.04
7.162	-0.025
7.163	-0.008
7.164	0.012
7.165	0.026
7.166	0.032
7.167	0.024
7.168	0.003
7.169	-0.029
7.17	-0.059
7.171	-0.08
7.172	-0.087
7.173	-0.089
7.174	-0.094
7.175	-0.106
7.176	-0.119
7.177	-0.127
7.178	-0.13
7.179	-0.13
7.18	-0.124
7.181	-0.109
7.182	-0.087
7.183	-0.064
7.184	-0.043
7.185	-0.026
7.186	-0.018
7.187	-0.021
7.188	-0.032
7.189	-0.045
7.19	-0.058
7.191	-0.071
7.192	-0.086
7.193	-0.104
7.194	-0.125
7.195	-0.145
7.196	-0.159
7.197	-0.16
7.198	-0.15
7.199	-0.131
7.2	-0.106
7.201	-0.084
7.202	-0.071
7.203	-0.071
7.204	-0.074
7.205	-0.064
7.206	-0.036
7.207	-0.004
7.208	0.015
7.209	0.013
7.21	-0.006
7.211	-0.036
7.212	-0.075
7.213	-0.117
7.214	-0.152
7.215	-0.174
7.216	-0.183
7.217	-0.186
7.218	-0.186
7.219	-0.176
7.22	-0.146
7.221	-0.095
7.222	-0.039
7.223	0.002
7.224	0.016
7.225	0.006
7.226	-0.018
7.227	-0.046
7.228	-0.071
7.229	-0.091
7.23	-0.11
7.231	-0.13
7.232	-0.147
7.233	-0.155
7.234	-0.149
7.235	-0.134
7.236	-0.119
7.237	-0.11
7.238	-0.11
7.239	-0.117
7.24	-0.124
7.241	-0.121
7.242	-0.105
7.243	-0.08
7.244	-0.056
7.245	-0.041
7.246	-0.039
7.247	-0.045
7.248	-0.057
7.249	-0.072
7.25	-0.088
7.251	-0.107
7.252	-0.13
7.253	-0.155
7.254	-0.18
7.255	-0.199
7.256	-0.207
7.257	-0.201
7.258	-0.184
7.259	-0.165
7.26	-0.147
7.261	-0.135
7.262	-0.124
7.263	-0.109
7.264	-0.086
7.265	-0.06
7.266	-0.045
7.267	-0.052
7.268	-0.076
7.269	-0.105
7.27	-0.128
7.271	-0.148
7.272	-0.17
7.273	-0.191
7.274	-0.204
7.275	-0.208
7.276	-0.205
7.277	-0.2
7.278	-0.19
7.279	-0.176
7.28	-0.16
7.281	-0.145
7.282	-0.129
7.283	-0.111
7.284	-0.098
7.285	-0.093
7.286	-0.09
7.287	-0.087
7.288	-0.087
7.289	-0.098
7.29	-0.123
7.291	-0.159
7.292	-0.197
7.293	-0.232
7.294	-0.255
7.295	-0.263
7.296	-0.254
7.297	-0.23
7.298	-0.196
7.299	-0.16
7.3	-0.132
7.301	-0.117
7.302	-0.118
7.303	-0.126
7.304	-0.134
7.305	-0.135
7.306	-0.129
7.307	-0.123
7.308	-0.118
7.309	-0.111
7.31	-0.109
7.311	-0.12
7.312	-0.149
7.313	-0.185
7.314	-0.216
7.315	-0.234
7.316	-0.24
7.317	-0.239
7.318	-0.236
7.319	-0.225
7.32	-0.209
7.321	-0.191
7.322	-0.174
7.323	-0.152
7.324	-0.123
7.325	-0.087
7.326	-0.055
7.327	-0.033
7.328	-0.029
7.329	-0.045
7.33	-0.073
7.331	-0.102
7.332	-0.127
7.333	-0.15
7.334	-0.175
7.335	-0.201
7.336	-0.221
7.337	-0.229
7.338	-0.224
7.339	-0.209
7.34	-0.184
7.341	-0.151
7.342	-0.115
7.343	-0.081
7.344	-0.057
7.345	-0.044
7.346	-0.04
7.347	-0.043
7.348	-0.053
7.349	-0.069
7.35	-0.089
7.351	-0.108
7.352	-0.127
7.353	-0.149
7.354	-0.172
7.355	-0.189
7.356	-0.193
7.357	-0.182
7.358	-0.166
7.359	-0.148
7.36	-0.121
7.361	-0.073
7.362	-0.013
7.363	0.042
7.364	0.072
7.365	0.077
7.366	0.067
7.367	0.051
7.368	0.034
7.369	0.018
7.37	-0.001
7.371	-0.023
7.372	-0.047
7.373	-0.065
7.374	-0.077
7.375	-0.082
7.376	-0.082
7.377	-0.077
7.378	-0.067
7.379	-0.053
7.38	-0.035
7.381	-0.011
7.382	0.021
7.383	0.059
7.384	0.091
7.385	0.103
7.386	0.088
7.387	0.059
7.388	0.036
7.389	0.022
7.39	0.013
7.391	-0.001
7.392	-0.023
7.393	-0.05
7.394	-0.078
7.395	-0.1
7.396	-0.106
7.397	-0.093
7.398	-0.067
7.399	-0.032
7.4	0.006
7.401	0.043
7.402	0.07
7.403	0.081
7.404	0.079
7.405	0.073
7.406	0.07
7.407	0.068
7.408	0.061
7.409	0.054
7.41	0.047
7.411	0.036
7.412	0.019
7.413	-0.003
7.414	-0.026
7.415	-0.05
7.416	-0.071
7.417	-0.079
7.418	-0.064
7.419	-0.032
7.42	0.004
7.421	0.032
7.422	0.049
7.423	0.058
7.424	0.06
7.425	0.061
7.426	0.064
7.427	0.074
7.428	0.088
7.429	0.095
7.43	0.087
7.431	0.066
7.432	0.036
7.433	0.002
7.434	-0.029
7.435	-0.045
7.436	-0.039
7.437	-0.017
7.438	0.009
7.439	0.031
7.44	0.046
7.441	0.057
7.442	0.071
7.443	0.091
7.444	0.114
7.445	0.132
7.446	0.14
7.447	0.135
7.448	0.123
7.449	0.11
7.45	0.102
7.451	0.096
7.452	0.085
7.453	0.066
7.454	0.044
7.455	0.022
7.456	0.002
7.457	-0.013
7.458	-0.015
7.459	-0.003
7.46	0.016
7.461	0.034
7.462	0.051
7.463	0.068
7.464	0.084
7.465	0.093
7.466	0.093
7.467	0.087
7.468	0.078
7.469	0.067
7.47	0.054
7.471	0.043
7.472	0.037
7.473	0.037
7.474	0.038
7.475	0.035
7.476	0.026
7.477	0.015
7.478	0.007
7.479	0.006
7.48	0.015
7.481	0.032
7.482	0.047
7.483	0.055
7.484	0.065
7.485	0.082
7.486	0.1
7.487	0.103
7.488	0.083
7.489	0.05
7.49	0.021
7.491	0.002
7.492	-0.008
7.493	-0.014
7.494	-0.02
7.495	-0.029
7.496	-0.036
7.497	-0.036
7.498	-0.028
7.499	-0.015
7.5	-0.005
7.501	0
7.502	0.005
7.503	0.019
7.504	0.048
7.505	0.083
7.506	0.106
7.507	0.108
7.508	0.095
7.509	0.074
7.51	0.052
7.511	0.024
7.512	-0.011
7.513	-0.051
7.514	-0.082
7.515	-0.093
7.516	-0.076
7.517	-0.037
7.518	0.007
7.519	0.041
7.52	0.062
7.521	0.072
7.522	0.074
7.523	0.07
7.524	0.064
7.525	0.06
7.526	0.062
7.527	0.065
7.528	0.061
7.529	0.048
7.53	0.024
7.531	-0.008
7.532	-0.04
7.533	-0.062
7.534	-0.066
7.535	-0.058
7.536	-0.047
7.537	-0.041
7.538	-0.038
7.539	-0.031
7.54	-0.018
7.541	0.002
7.542	0.025
7.543	0.048
7.544	0.069
7.545	0.084
7.546	0.085
7.547	0.073
7.548	0.052
7.549	0.03
7.55	0.016
7.551	0.009
7.552	0.002
7.553	-0.013
7.554	-0.035
7.555	-0.057
7.556	-0.068
7.557	-0.062
7.558	-0.048
7.559	-0.038
7.56	-0.035
7.561	-0.029
7.562	-0.013
7.563	0.012
7.564	0.043
7.565	0.073
7.566	0.097
7.567	0.107
7.568	0.098
7.569	0.074
7.57	0.04
7.571	0.004
7.572	-0.028
7.573	-0.055
7.574	-0.073
7.575	-0.077
7.576	-0.07
7.577	-0.059
7.578	-0.049
7.579	-0.034
7.58	-0.011
7.581	0.015
7.582	0.035
7.583	0.047
7.584	0.052
7.585	0.053
7.586	0.051
7.587	0.047
7.588	0.041
7.589	0.031
7.59	0.02
7.591	0.01
7.592	-0.001
7.593	-0.02
7.594	-0.045
7.595	-0.068
7.596	-0.083
7.597	-0.089
7.598	-0.088
7.599	-0.079
7.6	-0.06
7.601	-0.03
7.602	0.004
7.603	0.037
7.604	0.066
7.605	0.091
7.606	0.107
7.607	0.11
7.608	0.097
7.609	0.073
7.61	0.046
7.611	0.017
7.612	-0.015
7.613	-0.043
7.614	-0.059
7.615	-0.06
7.616	-0.052
7.617	-0.043
7.618	-0.034
7.619	-0.024
7.62	-0.008
7.621	0.014
7.622	0.037
7.623	0.056
7.624	0.068
7.625	0.077
7.626	0.085
7.627	0.088
7.628	0.076
7.629	0.048
7.63	0.01
7.631	-0.022
7.632	-0.037
7.633	-0.039
7.634	-0.039
7.635	-0.043
7.636	-0.045
7.637	-0.033
7.638	-0.006
7.639	0.02
7.64	0.033
7.641	0.036
7.642	0.039
7.643	0.049
7.644	0.063
7.645	0.076
7.646	0.086
7.647	0.087
7.648	0.076
7.649	0.051
7.65	0.022
7.651	-0.002
7.652	-0.014
7.653	-0.017
7.654	-0.023
7.655	-0.037
7.656	-0.052
7.657	-0.058
7.658	-0.05
7.659	-0.032
7.66	-0.013
7.661	0.002
7.662	0.014
7.663	0.028
7.664	0.05
7.665	0.076
7.666	0.093
7.667	0.091
7.668	0.068
7.669	0.035
7.67	0.001
7.671	-0.024
7.672	-0.036
7.673	-0.035
7.674	-0.026
7.675	-0.014
7.676	-0.005
7.677	0.002
7.678	0.003
7.679	-0.002
7.68	-0.011
7.681	-0.018
7.682	-0.019
7.683	-0.012
7.684	0.006
7.685	0.038
7.686	0.077
7.687	0.108
7.688	0.113
7.689	0.093
7.69	0.06
7.691	0.025
7.692	-0.005
7.693	-0.029
7.694	-0.051
7.695	-0.071
7.696	-0.08
7.697	-0.073
7.698	-0.051
7.699	-0.026
7.7	-0.005
7.701	0.01
7.702	0.022
7.703	0.035
7.704	0.051
7.705	0.068
7.706	0.079
7.707	0.078
7.708	0.069
7.709	0.055
7.71	0.044
7.711	0.039
7.712	0.038
7.713	0.03
7.714	0.007
7.715	-0.023
7.716	-0.046
7.717	-0.055
7.718	-0.053
7.719	-0.045
7.72	-0.033
7.721	-0.019
7.722	-0.002
7.723	0.015
7.724	0.034
7.725	0.06
7.726	0.091
7.727	0.116
7.728	0.127
7.729	0.119
7.73	0.095
7.731	0.06
7.732	0.021
7.733	-0.014
7.734	-0.042
7.735	-0.062
7.736	-0.075
7.737	-0.077
7.738	-0.072
7.739	-0.063
7.74	-0.05
7.741	-0.031
7.742	-0.007
7.743	0.022
7.744	0.053
7.745	0.085
7.746	0.112
7.747	0.121
7.748	0.108
7.749	0.07
7.75	0.02
7.751	-0.022
7.752	-0.043
7.753	-0.042
7.754	-0.033
7.755	-0.025
7.756	-0.022
7.757	-0.021
7.758	-0.018
7.759	-0.014
7.76	-0.008
7.761	0.003
7.762	0.028
7.763	0.065
7.764	0.102
7.765	0.117
7.766	0.106
7.767	0.078
7.768	0.048
7.769	0.027
7.77	0.015
7.771	0.006
7.772	-0.002
7.773	-0.012
7.774	-0.022
7.775	-0.029
7.776	-0.032
7.777	-0.031
7.778	-0.028
7.779	-0.023
7.78	-0.014
7.781	0.001
7.782	0.023
7.783	0.046
7.784	0.068
7.785	0.087
7.786	0.103
7.787	0.115
7.788	0.112
7.789	0.088
7.79	0.05
7.791	0.013
7.792	-0.014
7.793	-0.032
7.794	-0.048
7.795	-0.059
7.796	-0.062
7.797	-0.056
7.798	-0.045
7.799	-0.032
7.8	-0.017
7.801	0.001
7.802	0.021
7.803	0.034
7.804	0.036
7.805	0.033
7.806	0.035
7.807	0.045
7.808	0.052
7.809	0.043
7.81	0.02
7.811	-0.006
7.812	-0.022
7.813	-0.031
7.814	-0.036
7.815	-0.034
7.816	-0.025
7.817	-0.013
7.818	-0.004
7.819	0.003
7.82	0.013
7.821	0.025
7.822	0.036
7.823	0.045
7.824	0.053
7.825	0.061
7.826	0.062
7.827	0.055
7.828	0.044
7.829	0.041
7.83	0.042
7.831	0.039
7.832	0.022
7.833	-0.006
7.834	-0.033
7.835	-0.05
7.836	-0.055
7.837	-0.052
7.838	-0.046
7.839	-0.039
7.84	-0.032
7.841	-0.023
7.842	-0.007
7.843	0.022
7.844	0.055
7.845	0.078
7.846	0.08
7.847	0.066
7.848	0.046
7.849	0.028
7.85	0.011
7.851	-0.006
7.852	-0.023
7.853	-0.035
7.854	-0.041
7.855	-0.044
7.856	-0.05
7.857	-0.058
7.858	-0.059
7.859	-0.047
7.86	-0.025
7.861	-0.004
7.862	0.01
7.863	0.018
7.864	0.026
7.865	0.034
7.866	0.045
7.867	0.056
7.868	0.057
7.869	0.043
7.87	0.015
7.871	-0.014
7.872	-0.037
7.873	-0.054
7.874	-0.068
7.875	-0.077
7.876	-0.078
7.877	-0.071
7.878	-0.062
7.879	-0.054
7.88	-0.044
7.881	-0.029
7.882	-0.01
7.883	0.007
7.884	0.018
7.885	0.027
7.886	0.037
7.887	0.049
7.888	0.059
7.889	0.064
7.89	0.057
7.891	0.037
7.892	0.012
7.893	-0.005
7.894	-0.014
7.895	-0.018
7.896	-0.025
7.897	-0.033
7.898	-0.043
7.899	-0.052
7.9	-0.057
7.901	-0.052
7.902	-0.039
7.903	-0.019
7.904	0.005
7.905	0.032
7.906	0.063
7.907	0.096
7.908	0.122
7.909	0.13
7.91	0.122
7.911	0.103
7.912	0.077
7.913	0.045
7.914	0.01
7.915	-0.021
7.916	-0.042
7.917	-0.052
7.918	-0.049
7.919	-0.037
7.92	-0.019
7.921	0.003
7.922	0.03
7.923	0.057
7.924	0.079
7.925	0.092
7.926	0.097
7.927	0.095
7.928	0.092
7.929	0.092
7.93	0.093
7.931	0.088
7.932	0.069
7.933	0.039
7.934	0.006
7.935	-0.025
7.936	-0.043
7.937	-0.041
7.938	-0.023
7.939	-0.003
7.94	0.01
7.941	0.02
7.942	0.038
7.943	0.068
7.944	0.103
7.945	0.13
7.946	0.142
7.947	0.14
7.948	0.128
7.949	0.108
7.95	0.08
7.951	0.05
7.952	0.023
7.953	0
7.954	-0.017
7.955	-0.03
7.956	-0.037
7.957	-0.042
7.958	-0.043
7.959	-0.034
7.96	-0.014
7.961	0.012
7.962	0.039
7.963	0.059
7.964	0.073
7.965	0.078
7.966	0.071
7.967	0.052
7.968	0.023
7.969	-0.013
7.97	-0.054
7.971	-0.099
7.972	-0.143
7.973	-0.18
7.974	-0.204
7.975	-0.217
7.976	-0.225
7.977	-0.233
7.978	-0.244
7.979	-0.255
7.98	-0.263
7.981	-0.266
7.982	-0.266
7.983	-0.267
7.984	-0.27
7.985	-0.268
7.986	-0.256
7.987	-0.235
7.988	-0.215
7.989	-0.202
7.99	-0.198
7.991	-0.205
7.992	-0.221
7.993	-0.24
7.994	-0.246
7.995	-0.224
7.996	-0.167
7.997	-0.083
7.998	0.013
7.999	0.11
8	0.2
8.001	0.277
8.002	0.345
8.003	0.409
8.004	0.473
8.005	0.54
8.006	0.604
8.007	0.651
8.008	0.677
8.009	0.685
8.01	0.683
8.011	0.673
8.012	0.658
8.013	0.641
8.014	0.623
8.015	0.61
8.016	0.606
8.017	0.611
8.018	0.615
8.019	0.611
8.02	0.604
8.021	0.6
8.022	0.6
8.023	0.596
8.024	0.582
8.025	0.56
8.026	0.532
8.027	0.502
8.028	0.466
8.029	0.426
8.03	0.38
8.031	0.326
8.032	0.263
8.033	0.195
8.034	0.134
8.035	0.09
8.036	0.072
8.037	0.073
8.038	0.086
8.039	0.098
8.04	0.107
8.041	0.115
8.042	0.124
8.043	0.133
8.044	0.136
8.045	0.131
8.046	0.123
8.047	0.115
8.048	0.105
8.049	0.088
8.05	0.058
8.051	0.014
8.052	-0.036
8.053	-0.081
8.054	-0.111
8.055	-0.13
8.056	-0.144
8.057	-0.154
8.058	-0.156
8.059	-0.142
8.06	-0.115
8.061	-0.079
8.062	-0.042
8.063	-0.007
8.064	0.021
8.065	0.035
8.066	0.033
8.067	0.023
8.068	0.01
8.069	-0.006
8.07	-0.022
8.071	-0.032
8.072	-0.038
8.073	-0.046
8.074	-0.065
8.075	-0.089
8.076	-0.106
8.077	-0.112
8.078	-0.106
8.079	-0.092
8.08	-0.077
8.081	-0.069
8.082	-0.066
8.083	-0.056
8.084	-0.035
8.085	-0.007
8.086	0.015
8.087	0.02
8.088	0.007
8.089	-0.015
8.09	-0.036
8.091	-0.05
8.092	-0.061
8.093	-0.076
8.094	-0.098
8.095	-0.121
8.096	-0.135
8.097	-0.135
8.098	-0.127
8.099	-0.119
8.1	-0.112
8.101	-0.103
8.102	-0.086
8.103	-0.061
8.104	-0.029
8.105	0.005
8.106	0.031
8.107	0.038
8.108	0.025
8.109	-0.004
8.11	-0.039
8.111	-0.074
8.112	-0.106
8.113	-0.13
8.114	-0.146
8.115	-0.159
8.116	-0.169
8.117	-0.172
8.118	-0.166
8.119	-0.152
8.12	-0.132
8.121	-0.105
8.122	-0.074
8.123	-0.049
8.124	-0.034
8.125	-0.028
8.126	-0.025
8.127	-0.027
8.128	-0.036
8.129	-0.055
8.13	-0.081
8.131	-0.107
8.132	-0.122
8.133	-0.124
8.134	-0.12
8.135	-0.121
8.136	-0.132
8.137	-0.152
8.138	-0.171
8.139	-0.18
8.14	-0.175
8.141	-0.159
8.142	-0.133
8.143	-0.101
8.144	-0.063
8.145	-0.025
8.146	0.006
8.147	0.025
8.148	0.028
8.149	0.016
8.15	-0.005
8.151	-0.029
8.152	-0.056
8.153	-0.091
8.154	-0.133
8.155	-0.172
8.156	-0.196
8.157	-0.204
8.158	-0.199
8.159	-0.181
8.16	-0.152
8.161	-0.114
8.162	-0.076
8.163	-0.05
8.164	-0.041
8.165	-0.044
8.166	-0.052
8.167	-0.059
8.168	-0.058
8.169	-0.051
8.17	-0.043
8.171	-0.048
8.172	-0.07
8.173	-0.102
8.174	-0.133
8.175	-0.159
8.176	-0.184
8.177	-0.207
8.178	-0.217
8.179	-0.207
8.18	-0.181
8.181	-0.148
8.182	-0.114
8.183	-0.087
8.184	-0.07
8.185	-0.059
8.186	-0.05
8.187	-0.044
8.188	-0.049
8.189	-0.069
8.19	-0.102
8.191	-0.14
8.192	-0.174
8.193	-0.193
8.194	-0.196
8.195	-0.19
8.196	-0.19
8.197	-0.197
8.198	-0.198
8.199	-0.184
8.2	-0.16
8.201	-0.138
8.202	-0.127
8.203	-0.122
8.204	-0.113
8.205	-0.094
8.206	-0.073
8.207	-0.061
8.208	-0.066
8.209	-0.086
8.21	-0.113
8.211	-0.142
8.212	-0.164
8.213	-0.179
8.214	-0.189
8.215	-0.2
8.216	-0.216
8.217	-0.23
8.218	-0.237
8.219	-0.232
8.22	-0.214
8.221	-0.185
8.222	-0.152
8.223	-0.124
8.224	-0.104
8.225	-0.09
8.226	-0.078
8.227	-0.07
8.228	-0.067
8.229	-0.07
8.23	-0.088
8.231	-0.125
8.232	-0.174
8.233	-0.216
8.234	-0.238
8.235	-0.24
8.236	-0.226
8.237	-0.204
8.238	-0.182
8.239	-0.164
8.24	-0.148
8.241	-0.13
8.242	-0.111
8.243	-0.092
8.244	-0.08
8.245	-0.073
8.246	-0.07
8.247	-0.069
8.248	-0.068
8.249	-0.066
8.25	-0.069
8.251	-0.086
8.252	-0.119
8.253	-0.156
8.254	-0.184
8.255	-0.198
8.256	-0.201
8.257	-0.195
8.258	-0.183
8.259	-0.167
8.26	-0.151
8.261	-0.133
8.262	-0.109
8.263	-0.075
8.264	-0.028
8.265	0.019
8.266	0.047
8.267	0.046
8.268	0.027
8.269	0.006
8.27	-0.012
8.271	-0.034
8.272	-0.06
8.273	-0.081
8.274	-0.093
8.275	-0.103
8.276	-0.117
8.277	-0.134
8.278	-0.146
8.279	-0.147
8.28	-0.135
8.281	-0.108
8.282	-0.068
8.283	-0.029
8.284	-0.001
8.285	0.015
8.286	0.026
8.287	0.034
8.288	0.033
8.289	0.018
8.29	-0.004
8.291	-0.023
8.292	-0.037
8.293	-0.049
8.294	-0.061
8.295	-0.068
8.296	-0.07
8.297	-0.071
8.298	-0.077
8.299	-0.082
8.3	-0.073
8.301	-0.047
8.302	-0.01
8.303	0.029
8.304	0.062
8.305	0.082
8.306	0.087
8.307	0.078
8.308	0.068
8.309	0.063
8.31	0.058
8.311	0.045
8.312	0.02
8.313	-0.012
8.314	-0.04
8.315	-0.055
8.316	-0.06
8.317	-0.057
8.318	-0.045
8.319	-0.023
8.32	0.002
8.321	0.025
8.322	0.049
8.323	0.08
8.324	0.116
8.325	0.144
8.326	0.151
8.327	0.133
8.328	0.102
8.329	0.072
8.33	0.045
8.331	0.014
8.332	-0.025
8.333	-0.065
8.334	-0.089
8.335	-0.086
8.336	-0.061
8.337	-0.026
8.338	0.007
8.339	0.03
8.34	0.046
8.341	0.059
8.342	0.076
8.343	0.095
8.344	0.109
8.345	0.112
8.346	0.101
8.347	0.082
8.348	0.065
8.349	0.06
8.35	0.064
8.351	0.068
8.352	0.059
8.353	0.033
8.354	0
8.355	-0.026
8.356	-0.038
8.357	-0.035
8.358	-0.026
8.359	-0.019
8.36	-0.011
8.361	0.001
8.362	0.02
8.363	0.046
8.364	0.074
8.365	0.095
8.366	0.105
8.367	0.101
8.368	0.089
8.369	0.073
8.37	0.056
8.371	0.045
8.372	0.042
8.373	0.043
8.374	0.043
8.375	0.034
8.376	0.013
8.377	-0.017
8.378	-0.044
8.379	-0.056
8.38	-0.051
8.381	-0.033
8.382	-0.01
8.383	0.017
8.384	0.048
8.385	0.08
8.386	0.104
8.387	0.116
8.388	0.116
8.389	0.108
8.39	0.093
8.391	0.07
8.392	0.04
8.393	0.006
8.394	-0.027
8.395	-0.051
8.396	-0.062
8.397	-0.061
8.398	-0.053
8.399	-0.04
8.4	-0.022
8.401	0.001
8.402	0.027
8.403	0.056
8.404	0.084
8.405	0.106
8.406	0.118
8.407	0.122
8.408	0.116
8.409	0.099
8.41	0.072
8.411	0.041
8.412	0.016
8.413	0
8.414	-0.013
8.415	-0.03
8.416	-0.052
8.417	-0.065
8.418	-0.061
8.419	-0.04
8.42	-0.013
8.421	0.013
8.422	0.039
8.423	0.063
8.424	0.08
8.425	0.08
8.426	0.069
8.427	0.059
8.428	0.06
8.429	0.064
8.43	0.061
8.431	0.048
8.432	0.034
8.433	0.021
8.434	0.006
8.435	-0.017
8.436	-0.048
8.437	-0.076
8.438	-0.089
8.439	-0.08
8.44	-0.051
8.441	-0.016
8.442	0.015
8.443	0.036
8.444	0.048
8.445	0.056
8.446	0.06
8.447	0.064
8.448	0.068
8.449	0.065
8.45	0.047
8.451	0.017
8.452	-0.014
8.453	-0.041
8.454	-0.065
8.455	-0.087
8.456	-0.1
8.457	-0.096
8.458	-0.073
8.459	-0.043
8.46	-0.018
8.461	-0.006
8.462	0.001
8.463	0.015
8.464	0.042
8.465	0.073
8.466	0.093
8.467	0.094
8.468	0.08
8.469	0.061
8.47	0.043
8.471	0.025
8.472	0.004
8.473	-0.023
8.474	-0.052
8.475	-0.077
8.476	-0.096
8.477	-0.105
8.478	-0.092
8.479	-0.048
8.48	0.015
8.481	0.066
8.482	0.083
8.483	0.074
8.484	0.06
8.485	0.051
8.486	0.044
8.487	0.037
8.488	0.03
8.489	0.022
8.49	0.013
8.491	0.001
8.492	-0.011
8.493	-0.022
8.494	-0.034
8.495	-0.043
8.496	-0.051
8.497	-0.057
8.498	-0.062
8.499	-0.068
8.5	-0.073
8.501	-0.077
8.502	-0.072
8.503	-0.053
8.504	-0.02
8.505	0.022
8.506	0.061
8.507	0.09
8.508	0.104
8.509	0.103
8.51	0.09
8.511	0.067
8.512	0.033
8.513	-0.007
8.514	-0.04
8.515	-0.052
8.516	-0.043
8.517	-0.026
8.518	-0.012
8.519	-0.004
8.52	0.006
8.521	0.019
8.522	0.034
8.523	0.042
8.524	0.041
8.525	0.032
8.526	0.025
8.527	0.023
8.528	0.026
8.529	0.028
8.53	0.024
8.531	0.014
8.532	-0.003
8.533	-0.024
8.534	-0.043
8.535	-0.058
8.536	-0.069
8.537	-0.073
8.538	-0.067
8.539	-0.051
8.54	-0.033
8.541	-0.019
8.542	-0.011
8.543	-0.003
8.544	0.01
8.545	0.029
8.546	0.05
8.547	0.063
8.548	0.065
8.549	0.057
8.55	0.042
8.551	0.024
8.552	0.004
8.553	-0.018
8.554	-0.04
8.555	-0.061
8.556	-0.073
8.557	-0.072
8.558	-0.062
8.559	-0.046
8.56	-0.024
8.561	0
8.562	0.02
8.563	0.035
8.564	0.048
8.565	0.06
8.566	0.067
8.567	0.065
8.568	0.054
8.569	0.039
8.57	0.025
8.571	0.016
8.572	0.012
8.573	0.01
8.574	0.002
8.575	-0.016
8.576	-0.043
8.577	-0.071
8.578	-0.089
8.579	-0.087
8.58	-0.064
8.581	-0.031
8.582	-0.003
8.583	0.013
8.584	0.018
8.585	0.025
8.586	0.046
8.587	0.076
8.588	0.103
8.589	0.113
8.59	0.1
8.591	0.068
8.592	0.026
8.593	-0.017
8.594	-0.046
8.595	-0.055
8.596	-0.048
8.597	-0.036
8.598	-0.026
8.599	-0.015
8.6	0.002
8.601	0.019
8.602	0.029
8.603	0.027
8.604	0.02
8.605	0.019
8.606	0.028
8.607	0.047
8.608	0.065
8.609	0.075
8.61	0.069
8.611	0.048
8.612	0.023
8.613	-0.001
8.614	-0.024
8.615	-0.046
8.616	-0.066
8.617	-0.078
8.618	-0.081
8.619	-0.078
8.62	-0.067
8.621	-0.045
8.622	-0.012
8.623	0.026
8.624	0.055
8.625	0.066
8.626	0.062
8.627	0.049
8.628	0.039
8.629	0.037
8.63	0.042
8.631	0.043
8.632	0.03
8.633	0.007
8.634	-0.016
8.635	-0.035
8.636	-0.047
8.637	-0.049
8.638	-0.045
8.639	-0.037
8.64	-0.025
8.641	-0.008
8.642	0.016
8.643	0.04
8.644	0.06
8.645	0.075
8.646	0.085
8.647	0.092
8.648	0.089
8.649	0.073
8.65	0.045
8.651	0.015
8.652	-0.003
8.653	-0.006
8.654	-0.003
8.655	-0.007
8.656	-0.018
8.657	-0.03
8.658	-0.037
8.659	-0.039
8.66	-0.038
8.661	-0.034
8.662	-0.021
8.663	0.004
8.664	0.037
8.665	0.067
8.666	0.085
8.667	0.088
8.668	0.084
8.669	0.081
8.67	0.078
8.671	0.067
8.672	0.042
8.673	0.007
8.674	-0.026
8.675	-0.046
8.676	-0.053
8.677	-0.05
8.678	-0.039
8.679	-0.019
8.68	0.008
8.681	0.035
8.682	0.052
8.683	0.055
8.684	0.053
8.685	0.062
8.686	0.084
8.687	0.109
8.688	0.12
8.689	0.108
8.69	0.076
8.691	0.041
8.692	0.013
8.693	-0.012
8.694	-0.038
8.695	-0.059
8.696	-0.065
8.697	-0.054
8.698	-0.034
8.699	-0.012
8.7	0.008
8.701	0.023
8.702	0.033
8.703	0.042
8.704	0.052
8.705	0.062
8.706	0.067
8.707	0.064
8.708	0.054
8.709	0.039
8.71	0.023
8.711	0.01
8.712	0.001
8.713	-0.009
8.714	-0.03
8.715	-0.058
8.716	-0.083
8.717	-0.093
8.718	-0.083
8.719	-0.056
8.72	-0.022
8.721	0.009
8.722	0.035
8.723	0.058
8.724	0.077
8.725	0.087
8.726	0.084
8.727	0.067
8.728	0.047
8.729	0.031
8.73	0.024
8.731	0.02
8.732	0.011
8.733	-0.003
8.734	-0.02
8.735	-0.035
8.736	-0.049
8.737	-0.064
8.738	-0.074
8.739	-0.078
8.74	-0.074
8.741	-0.06
8.742	-0.034
8.743	-0.003
8.744	0.026
8.745	0.049
8.746	0.068
8.747	0.09
8.748	0.114
8.749	0.132
8.75	0.132
8.751	0.111
8.752	0.08
8.753	0.049
8.754	0.021
8.755	-0.004
8.756	-0.027
8.757	-0.042
8.758	-0.048
8.759	-0.045
8.76	-0.037
8.761	-0.023
8.762	-0.002
8.763	0.021
8.764	0.039
8.765	0.053
8.766	0.068
8.767	0.087
8.768	0.106
8.769	0.113
8.77	0.101
8.771	0.074
8.772	0.041
8.773	0.007
8.774	-0.026
8.775	-0.057
8.776	-0.079
8.777	-0.086
8.778	-0.078
8.779	-0.058
8.78	-0.033
8.781	-0.011
8.782	0.003
8.783	0.014
8.784	0.031
8.785	0.054
8.786	0.076
8.787	0.09
8.788	0.093
8.789	0.087
8.79	0.067
8.791	0.036
8.792	0.002
8.793	-0.023
8.794	-0.037
8.795	-0.043
8.796	-0.043
8.797	-0.035
8.798	-0.021
8.799	-0.005
8.8	0.005
8.801	0.01
8.802	0.017
8.803	0.031
8.804	0.047
8.805	0.059
8.806	0.065
8.807	0.068
8.808	0.07
8.809	0.07
8.81	0.067
8.811	0.062
8.812	0.05
8.813	0.031
8.814	0.007
8.815	-0.02
8.816	-0.048
8.817	-0.075
8.818	-0.095
8.819	-0.097
8.82	-0.08
8.821	-0.051
8.822	-0.023
8.823	-0.001
8.824	0.019
8.825	0.043
8.826	0.062
8.827	0.072
8.828	0.071
8.829	0.062
8.83	0.048
8.831	0.026
8.832	-0.003
8.833	-0.034
8.834	-0.061
8.835	-0.081
8.836	-0.092
8.837	-0.096
8.838	-0.094
8.839	-0.088
8.84	-0.077
8.841	-0.059
8.842	-0.033
8.843	-0.009
8.844	0.01
8.845	0.028
8.846	0.049
8.847	0.071
8.848	0.087
8.849	0.088
8.85	0.074
8.851	0.048
8.852	0.019
8.853	-0.006
8.854	-0.024
8.855	-0.035
8.856	-0.039
8.857	-0.035
8.858	-0.022
8.859	-0.005
8.86	0.012
8.861	0.026
8.862	0.035
8.863	0.048
8.864	0.071
8.865	0.103
8.866	0.133
8.867	0.148
8.868	0.143
8.869	0.121
8.87	0.091
8.871	0.063
8.872	0.037
8.873	0.012
8.874	-0.016
8.875	-0.043
8.876	-0.058
8.877	-0.057
8.878	-0.041
8.879	-0.021
8.88	-0.003
8.881	0.015
8.882	0.035
8.883	0.054
8.884	0.073
8.885	0.093
8.886	0.111
8.887	0.117
8.888	0.106
8.889	0.082
8.89	0.054
8.891	0.027
8.892	0.001
8.893	-0.019
8.894	-0.03
8.895	-0.032
8.896	-0.026
8.897	-0.021
8.898	-0.022
8.899	-0.024
8.9	-0.018
8.901	0.003
8.902	0.034
8.903	0.064
8.904	0.085
8.905	0.095
8.906	0.099
8.907	0.102
8.908	0.104
8.909	0.098
8.91	0.074
8.911	0.033
8.912	-0.009
8.913	-0.038
8.914	-0.049
8.915	-0.051
8.916	-0.057
8.917	-0.065
8.918	-0.066
8.919	-0.056
8.92	-0.041
8.921	-0.02
8.922	0.011
8.923	0.045
8.924	0.071
8.925	0.084
8.926	0.088
8.927	0.091
8.928	0.092
8.929	0.089
8.93	0.076
8.931	0.052
8.932	0.024
8.933	-0.004
8.934	-0.03
8.935	-0.056
8.936	-0.083
8.937	-0.107
8.938	-0.126
8.939	-0.138
8.94	-0.143
8.941	-0.138
8.942	-0.129
8.943	-0.123
8.944	-0.127
8.945	-0.137
8.946	-0.15
8.947	-0.165
8.948	-0.184
8.949	-0.208
8.95	-0.237
8.951	-0.266
8.952	-0.286
8.953	-0.295
8.954	-0.3
8.955	-0.31
8.956	-0.326
8.957	-0.339
8.958	-0.343
8.959	-0.337
8.96	-0.318
8.961	-0.279
8.962	-0.211
8.963	-0.12
8.964	-0.023
8.965	0.068
8.966	0.15
8.967	0.226
8.968	0.288
8.969	0.329
8.97	0.352
8.971	0.365
8.972	0.376
8.973	0.387
8.974	0.4
8.975	0.422
8.976	0.451
8.977	0.485
8.978	0.519
8.979	0.554
8.98	0.591
8.981	0.627
8.982	0.663
8.983	0.699
8.984	0.734
8.985	0.762
8.986	0.771
8.987	0.757
8.988	0.718
8.989	0.659
8.99	0.589
8.991	0.522
8.992	0.467
8.993	0.425
8.994	0.386
8.995	0.342
8.996	0.295
8.997	0.25
8.998	0.212
8.999	0.188
9	0.184
9.001	0.195
9.002	0.209
9.003	0.218
9.004	0.219
9.005	0.21
9.006	0.192
9.007	0.166
9.008	0.138
9.009	0.113
9.01	0.095
9.011	0.087
9.012	0.087
9.013	0.083
9.014	0.065
9.015	0.033
9.016	-0.002
9.017	-0.025
9.018	-0.034
9.019	-0.039
9.02	-0.045
9.021	-0.048
9.022	-0.037
9.023	-0.013
9.024	0.011
9.025	0.024
9.026	0.022
9.027	0.011
9.028	0.001
9.029	-0.007
9.03	-0.013
9.031	-0.019
9.032	-0.025
9.033	-0.033
9.034	-0.048
9.035	-0.067
9.036	-0.081
9.037	-0.081
9.038	-0.071
9.039	-0.062
9.04	-0.056
9.041	-0.048
9.042	-0.034
9.043	-0.018
9.044	-0.004
9.045	0.007
9.046	0.017
9.047	0.024
9.048	0.023
9.049	0.012
9.05	-0.005
9.051	-0.026
9.052	-0.052
9.053	-0.083
9.054	-0.115
9.055	-0.141
9.056	-0.16
9.057	-0.171
9.058	-0.169
9.059	-0.147
9.06	-0.109
9.061	-0.07
9.062	-0.041
9.063	-0.019
9.064	0.003
9.065	0.02
9.066	0.023
9.067	0.014
9.068	0.003
9.069	-0.007
9.07	-0.023
9.071	-0.05
9.072	-0.083
9.073	-0.112
9.074	-0.131
9.075	-0.142
9.076	-0.148
9.077	-0.142
9.078	-0.117
9.079	-0.08
9.08	-0.052
9.081	-0.043
9.082	-0.046
9.083	-0.044
9.084	-0.028
9.085	-0.003
9.086	0.019
9.087	0.027
9.088	0.021
9.089	0.007
9.09	-0.011
9.091	-0.032
9.092	-0.06
9.093	-0.093
9.094	-0.128
9.095	-0.157
9.096	-0.17
9.097	-0.16
9.098	-0.137
9.099	-0.113
9.1	-0.096
9.101	-0.08
9.102	-0.057
9.103	-0.031
9.104	-0.012
9.105	-0.002
9.106	0.002
9.107	0.004
9.108	0.001
9.109	-0.01
9.11	-0.028
9.111	-0.053
9.112	-0.08
9.113	-0.106
9.114	-0.13
9.115	-0.151
9.116	-0.167
9.117	-0.176
9.118	-0.176
9.119	-0.165
9.12	-0.143
9.121	-0.115
9.122	-0.093
9.123	-0.079
9.124	-0.068
9.125	-0.048
9.126	-0.018
9.127	0.012
9.128	0.03
9.129	0.027
9.13	0.003
9.131	-0.036
9.132	-0.078
9.133	-0.115
9.134	-0.143
9.135	-0.158
9.136	-0.163
9.137	-0.163
9.138	-0.163
9.139	-0.165
9.14	-0.163
9.141	-0.154
9.142	-0.136
9.143	-0.114
9.144	-0.087
9.145	-0.059
9.146	-0.036
9.147	-0.03
9.148	-0.043
9.149	-0.067
9.15	-0.093
9.151	-0.114
9.152	-0.127
9.153	-0.133
9.154	-0.137
9.155	-0.144
9.156	-0.159
9.157	-0.176
9.158	-0.188
9.159	-0.189
9.16	-0.181
9.161	-0.172
9.162	-0.162
9.163	-0.152
9.164	-0.138
9.165	-0.12
9.166	-0.098
9.167	-0.076
9.168	-0.065
9.169	-0.072
9.17	-0.101
9.171	-0.137
9.172	-0.168
9.173	-0.189
9.174	-0.207
9.175	-0.226
9.176	-0.234
9.177	-0.22
9.178	-0.188
9.179	-0.157
9.18	-0.138
9.181	-0.131
9.182	-0.124
9.183	-0.11
9.184	-0.09
9.185	-0.071
9.186	-0.058
9.187	-0.058
9.188	-0.071
9.189	-0.092
9.19	-0.116
9.191	-0.139
9.192	-0.157
9.193	-0.169
9.194	-0.182
9.195	-0.203
9.196	-0.23
9.197	-0.255
9.198	-0.265
9.199	-0.255
9.2	-0.225
9.201	-0.182
9.202	-0.135
9.203	-0.095
9.204	-0.069
9.205	-0.055
9.206	-0.049
9.207	-0.043
9.208	-0.036
9.209	-0.03
9.21	-0.029
9.211	-0.029
9.212	-0.036
9.213	-0.057
9.214	-0.094
9.215	-0.14
9.216	-0.179
9.217	-0.203
9.218	-0.212
9.219	-0.21
9.22	-0.198
9.221	-0.173
9.222	-0.134
9.223	-0.091
9.224	-0.059
9.225	-0.043
9.226	-0.034
9.227	-0.025
9.228	-0.015
9.229	-0.015
9.23	-0.029
9.231	-0.054
9.232	-0.083
9.233	-0.109
9.234	-0.13
9.235	-0.146
9.236	-0.158
9.237	-0.162
9.238	-0.152
9.239	-0.129
9.24	-0.106
9.241	-0.093
9.242	-0.088
9.243	-0.077
9.244	-0.057
9.245	-0.031
9.246	-0.002
9.247	0.026
9.248	0.052
9.249	0.066
9.25	0.057
9.251	0.026
9.252	-0.014
9.253	-0.045
9.254	-0.062
9.255	-0.068
9.256	-0.073
9.257	-0.083
9.258	-0.094
9.259	-0.096
9.26	-0.084
9.261	-0.064
9.262	-0.044
9.263	-0.027
9.264	-0.007
9.265	0.023
9.266	0.059
9.267	0.091
9.268	0.104
9.269	0.093
9.27	0.06
9.271	0.019
9.272	-0.018
9.273	-0.045
9.274	-0.062
9.275	-0.072
9.276	-0.081
9.277	-0.092
9.278	-0.103
9.279	-0.109
9.28	-0.103
9.281	-0.081
9.282	-0.044
9.283	0.002
9.284	0.046
9.285	0.082
9.286	0.106
9.287	0.118
9.288	0.113
9.289	0.09
9.29	0.057
9.291	0.026
9.292	0.007
9.293	0.002
9.294	0.005
9.295	0.011
9.296	0.012
9.297	0.008
9.298	0
9.299	-0.01
9.3	-0.019
9.301	-0.017
9.302	0.003
9.303	0.041
9.304	0.085
9.305	0.119
9.306	0.134
9.307	0.128
9.308	0.11
9.309	0.088
9.31	0.07
9.311	0.058
9.312	0.047
9.313	0.029
9.314	-0.001
9.315	-0.037
9.316	-0.068
9.317	-0.083
9.318	-0.082
9.319	-0.07
9.32	-0.047
9.321	-0.012
9.322	0.032
9.323	0.075
9.324	0.108
9.325	0.127
9.326	0.137
9.327	0.142
9.328	0.138
9.329	0.123
9.33	0.1
9.331	0.073
9.332	0.05
9.333	0.036
9.334	0.027
9.335	0.018
9.336	0.007
9.337	0
9.338	0.001
9.339	0.009
9.34	0.024
9.341	0.049
9.342	0.081
9.343	0.109
9.344	0.121
9.345	0.119
9.346	0.114
9.347	0.116
9.348	0.118
9.349	0.113
9.35	0.1
9.351	0.082
9.352	0.061
9.353	0.039
9.354	0.017
9.355	-0.003
9.356	-0.018
9.357	-0.026
9.358	-0.033
9.359	-0.041
9.36	-0.046
9.361	-0.038
9.362	-0.012
9.363	0.026
9.364	0.07
9.365	0.109
9.366	0.137
9.367	0.146
9.368	0.137
9.369	0.117
9.37	0.096
9.371	0.076
9.372	0.054
9.373	0.025
9.374	-0.012
9.375	-0.056
9.376	-0.098
9.377	-0.123
9.378	-0.118
9.379	-0.087
9.38	-0.046
9.381	-0.005
9.382	0.036
9.383	0.076
9.384	0.105
9.385	0.119
9.386	0.126
9.387	0.137
9.388	0.152
9.389	0.151
9.39	0.124
9.391	0.077
9.392	0.027
9.393	-0.013
9.394	-0.038
9.395	-0.055
9.396	-0.067
9.397	-0.074
9.398	-0.069
9.399	-0.048
9.4	-0.016
9.401	0.014
9.402	0.034
9.403	0.043
9.404	0.048
9.405	0.059
9.406	0.073
9.407	0.084
9.408	0.085
9.409	0.077
9.41	0.063
9.411	0.045
9.412	0.023
9.413	-0.002
9.414	-0.024
9.415	-0.041
9.416	-0.053
9.417	-0.062
9.418	-0.064
9.419	-0.052
9.42	-0.03
9.421	-0.013
9.422	-0.006
9.423	-0.003
9.424	0.005
9.425	0.02
9.426	0.035
9.427	0.046
9.428	0.05
9.429	0.045
9.43	0.029
9.431	0.004
9.432	-0.02
9.433	-0.04
9.434	-0.056
9.435	-0.071
9.436	-0.083
9.437	-0.088
9.438	-0.085
9.439	-0.075
9.44	-0.058
9.441	-0.036
9.442	-0.013
9.443	0.005
9.444	0.018
9.445	0.024
9.446	0.024
9.447	0.021
9.448	0.02
9.449	0.027
9.45	0.035
9.451	0.03
9.452	0.005
9.453	-0.034
9.454	-0.07
9.455	-0.091
9.456	-0.101
9.457	-0.105
9.458	-0.108
9.459	-0.104
9.46	-0.089
9.461	-0.061
9.462	-0.023
9.463	0.018
9.464	0.053
9.465	0.075
9.466	0.082
9.467	0.081
9.468	0.075
9.469	0.066
9.47	0.049
9.471	0.026
9.472	0
9.473	-0.026
9.474	-0.049
9.475	-0.067
9.476	-0.077
9.477	-0.075
9.478	-0.066
9.479	-0.054
9.48	-0.043
9.481	-0.031
9.482	-0.014
9.483	0.005
9.484	0.02
9.485	0.034
9.486	0.053
9.487	0.078
9.488	0.096
9.489	0.098
9.49	0.08
9.491	0.049
9.492	0.01
9.493	-0.028
9.494	-0.054
9.495	-0.063
9.496	-0.06
9.497	-0.051
9.498	-0.038
9.499	-0.022
9.5	-0.01
9.501	-0.003
9.502	-0.001
9.503	0.001
9.504	0.005
9.505	0.015
9.506	0.028
9.507	0.04
9.508	0.05
9.509	0.058
9.51	0.065
9.511	0.068
9.512	0.059
9.513	0.036
9.514	-0.001
9.515	-0.042
9.516	-0.078
9.517	-0.101
9.518	-0.108
9.519	-0.1
9.52	-0.075
9.521	-0.036
9.522	0.007
9.523	0.045
9.524	0.073
9.525	0.088
9.526	0.091
9.527	0.085
9.528	0.074
9.529	0.064
9.53	0.053
9.531	0.041
9.532	0.027
9.533	0.009
9.534	-0.013
9.535	-0.035
9.536	-0.053
9.537	-0.061
9.538	-0.058
9.539	-0.043
9.54	-0.018
9.541	0.011
9.542	0.036
9.543	0.052
9.544	0.06
9.545	0.061
9.546	0.059
9.547	0.055
9.548	0.053
9.549	0.058
9.55	0.064
9.551	0.058
9.552	0.035
9.553	0
9.554	-0.038
9.555	-0.068
9.556	-0.08
9.557	-0.069
9.558	-0.045
9.559	-0.021
9.56	-0.006
9.561	0
9.562	0.006
9.563	0.018
9.564	0.033
9.565	0.049
9.566	0.06
9.567	0.064
9.568	0.06
9.569	0.049
9.57	0.039
9.571	0.032
9.572	0.026
9.573	0.012
9.574	-0.011
9.575	-0.038
9.576	-0.051
9.577	-0.04
9.578	-0.012
9.579	0.011
9.58	0.018
9.581	0.013
9.582	0.009
9.583	0.019
9.584	0.039
9.585	0.064
9.586	0.085
9.587	0.093
9.588	0.086
9.589	0.066
9.59	0.045
9.591	0.029
9.592	0.02
9.593	0.012
9.594	0.001
9.595	-0.016
9.596	-0.037
9.597	-0.057
9.598	-0.066
9.599	-0.061
9.6	-0.046
9.601	-0.025
9.602	0.001
9.603	0.035
9.604	0.072
9.605	0.097
9.606	0.107
9.607	0.11
9.608	0.117
9.609	0.121
9.61	0.106
9.611	0.067
9.612	0.02
9.613	-0.016
9.614	-0.034
9.615	-0.041
9.616	-0.045
9.617	-0.047
9.618	-0.044
9.619	-0.038
9.62	-0.032
9.621	-0.024
9.622	-0.01
9.623	0.011
9.624	0.036
9.625	0.062
9.626	0.085
9.627	0.099
9.628	0.101
9.629	0.088
9.63	0.061
9.631	0.029
9.632	-0.005
9.633	-0.035
9.634	-0.056
9.635	-0.063
9.636	-0.06
9.637	-0.055
9.638	-0.05
9.639	-0.04
9.64	-0.017
9.641	0.017
9.642	0.055
9.643	0.083
9.644	0.092
9.645	0.083
9.646	0.063
9.647	0.044
9.648	0.033
9.649	0.029
9.65	0.028
9.651	0.024
9.652	0.013
9.653	-0.005
9.654	-0.024
9.655	-0.041
9.656	-0.058
9.657	-0.075
9.658	-0.087
9.659	-0.086
9.66	-0.071
9.661	-0.046
9.662	-0.018
9.663	0.009
9.664	0.034
9.665	0.055
9.666	0.07
9.667	0.08
9.668	0.084
9.669	0.085
9.67	0.085
9.671	0.077
9.672	0.057
9.673	0.021
9.674	-0.024
9.675	-0.066
9.676	-0.094
9.677	-0.095
9.678	-0.071
9.679	-0.038
9.68	-0.015
9.681	-0.005
9.682	0.005
9.683	0.029
9.684	0.065
9.685	0.099
9.686	0.119
9.687	0.121
9.688	0.11
9.689	0.094
9.69	0.079
9.691	0.067
9.692	0.057
9.693	0.045
9.694	0.028
9.695	0.008
9.696	-0.009
9.697	-0.023
9.698	-0.033
9.699	-0.035
9.7	-0.026
9.701	-0.01
9.702	0.007
9.703	0.018
9.704	0.025
9.705	0.034
9.706	0.046
9.707	0.057
9.708	0.06
9.709	0.054
9.71	0.043
9.711	0.033
9.712	0.025
9.713	0.014
9.714	-0.002
9.715	-0.021
9.716	-0.036
9.717	-0.042
9.718	-0.039
9.719	-0.037
9.72	-0.037
9.721	-0.033
9.722	-0.018
9.723	0.012
9.724	0.052
9.725	0.089
9.726	0.109
9.727	0.105
9.728	0.086
9.729	0.063
9.73	0.048
9.731	0.042
9.732	0.039
9.733	0.027
9.734	0.006
9.735	-0.022
9.736	-0.05
9.737	-0.076
9.738	-0.097
9.739	-0.111
9.74	-0.112
9.741	-0.097
9.742	-0.064
9.743	-0.018
9.744	0.028
9.745	0.062
9.746	0.076
9.747	0.072
9.748	0.063
9.749	0.058
