0	-0.029
0.001	-0.029
0.002	-0.029
0.003	-0.029
0.004	-0.029
0.005	-0.029
0.006	-0.029
0.007	-0.029
0.008	-0.029
0.009	-0.029
0.01	-0.029
0.011	-0.029
0.012	-0.029
0.013	-0.029
0.014	-0.029
0.015	-0.029
0.016	-0.029
0.017	-0.029
0.018	-0.029
0.019	-0.029
0.02	-0.029
0.021	-0.029
0.022	-0.029
0.023	-0.029
0.024	-0.029
0.025	-0.029
0.026	-0.029
0.027	-0.029
0.028	-0.029
0.029	-0.029
0.03	-0.029
0.031	-0.029
0.032	-0.029
0.033	-0.029
0.034	-0.029
0.035	-0.029
0.036	-0.029
0.037	-0.029
0.038	-0.029
0.039	-0.029
0.04	-0.029
0.041	-0.029
0.042	-0.029
0.043	-0.029
0.044	-0.029
0.045	-0.029
0.046	-0.029
0.047	-0.029
0.048	-0.029
0.049	-0.029
0.05	-0.029
0.051	-0.029
0.052	-0.029
0.053	-0.029
0.054	-0.029
0.055	-0.029
0.056	-0.029
0.057	-0.029
0.058	-0.029
0.059	-0.029
0.06	-0.029
0.061	-0.029
0.062	-0.029
0.063	-0.029
0.064	-0.029
0.065	-0.029
0.066	-0.029
0.067	-0.029
0.068	-0.029
0.069	-0.029
0.07	-0.029
0.071	-0.029
0.072	-0.029
0.073	-0.029
0.074	-0.029
0.075	-0.029
0.076	-0.029
0.077	-0.029
0.078	-0.029
0.079	-0.029
0.08	-0.029
0.081	-0.029
0.082	-0.029
0.083	-0.029
0.084	-0.029
0.085	-0.029
0.086	-0.029
0.087	-0.029
0.088	-0.029
0.089	-0.029
0.09	-0.029
0.091	-0.029
0.092	-0.029
0.093	-0.029
0.094	-0.029
0.095	-0.029
0.096	-0.029
0.097	-0.029
0.098	-0.029
0.099	-0.029
0.1	-0.029
0.101	-0.029
0.102	-0.029
0.103	-0.029
0.104	-0.029
0.105	-0.029
0.106	-0.029
0.107	-0.029
0.108	-0.029
0.109	-0.029
0.11	-0.029
0.111	-0.029
0.112	-0.029
0.113	-0.029
0.114	-0.029
0.115	-0.029
0.116	-0.029
0.117	-0.029
0.118	-0.029
0.119	-0.029
0.12	-0.029
0.121	-0.029
0.122	-0.029
0.123	-0.029
0.124	-0.029
0.125	-0.029
0.126	-0.029
0.127	-0.029
0.128	-0.029
0.129	-0.029
0.13	-0.029
0.131	-0.029
0.132	-0.029
0.133	-0.029
0.134	-0.029
0.135	-0.029
0.136	-0.029
0.137	-0.029
0.138	-0.029
0.139	-0.029
0.14	-0.029
0.141	-0.029
0.142	-0.029
0.143	-0.029
0.144	-0.029
0.145	-0.029
0.146	-0.029
0.147	-0.029
0.148	-0.029
0.149	-0.029
0.15	-0.029
0.151	-0.029
0.152	-0.029
0.153	-0.029
0.154	-0.029
0.155	-0.029
0.156	-0.029
0.157	-0.029
0.158	-0.029
0.159	-0.029
0.16	-0.029
0.161	-0.029
0.162	-0.029
0.163	-0.029
0.164	-0.029
0.165	-0.029
0.166	-0.029
0.167	-0.029
0.168	-0.029
0.169	-0.029
0.17	-0.029
0.171	-0.029
0.172	-0.029
0.173	-0.029
0.174	-0.029
0.175	-0.029
0.176	-0.029
0.177	-0.029
0.178	-0.029
0.179	-0.029
0.18	-0.029
0.181	-0.029
0.182	-0.029
0.183	-0.029
0.184	-0.029
0.185	-0.029
0.186	-0.029
0.187	-0.029
0.188	-0.029
0.189	-0.029
0.19	-0.029
0.191	-0.029
0.192	-0.029
0.193	-0.029
0.194	-0.03
0.195	-0.03
0.196	-0.03
0.197	-0.03
0.198	-0.03
0.199	-0.03
0.2	-0.029
0.201	-0.029
0.202	-0.029
0.203	-0.03
0.204	-0.031
0.205	-0.032
0.206	-0.034
0.207	-0.037
0.208	-0.041
0.209	-0.045
0.21	-0.051
0.211	-0.057
0.212	-0.064
0.213	-0.071
0.214	-0.079
0.215	-0.087
0.216	-0.094
0.217	-0.101
0.218	-0.107
0.219	-0.111
0.22	-0.113
0.221	-0.112
0.222	-0.109
0.223	-0.101
0.224	-0.09
0.225	-0.075
0.226	-0.056
0.227	-0.033
0.228	-0.005
0.229	0.027
0.23	0.063
0.231	0.102
0.232	0.144
0.233	0.188
0.234	0.233
0.235	0.278
0.236	0.323
0.237	0.366
0.238	0.407
0.239	0.445
0.24	0.478
0.241	0.507
0.242	0.531
0.243	0.548
0.244	0.56
0.245	0.565
0.246	0.564
0.247	0.557
0.248	0.544
0.249	0.525
0.25	0.501
0.251	0.473
0.252	0.441
0.253	0.406
0.254	0.368
0.255	0.329
0.256	0.289
0.257	0.248
0.258	0.208
0.259	0.168
0.26	0.13
0.261	0.094
0.262	0.06
0.263	0.028
0.264	0
0.265	-0.025
0.266	-0.047
0.267	-0.066
0.268	-0.081
0.269	-0.093
0.27	-0.102
0.271	-0.109
0.272	-0.112
0.273	-0.114
0.274	-0.112
0.275	-0.11
0.276	-0.105
0.277	-0.1
0.278	-0.094
0.279	-0.088
0.28	-0.081
0.281	-0.075
0.282	-0.069
0.283	-0.064
0.284	-0.06
0.285	-0.056
0.286	-0.054
0.287	-0.052
0.288	-0.051
0.289	-0.051
0.29	-0.051
0.291	-0.052
0.292	-0.053
0.293	-0.054
0.294	-0.056
0.295	-0.057
0.296	-0.057
0.297	-0.058
0.298	-0.058
0.299	-0.058
0.3	-0.058
0.301	-0.057
0.302	-0.056
0.303	-0.055
0.304	-0.054
0.305	-0.053
0.306	-0.052
0.307	-0.052
0.308	-0.051
0.309	-0.051
0.31	-0.051
0.311	-0.051
0.312	-0.051
0.313	-0.051
0.314	-0.051
0.315	-0.052
0.316	-0.052
0.317	-0.053
0.318	-0.053
0.319	-0.053
0.32	-0.053
0.321	-0.052
0.322	-0.052
0.323	-0.052
0.324	-0.051
0.325	-0.05
0.326	-0.05
0.327	-0.049
0.328	-0.049
0.329	-0.049
0.33	-0.048
0.331	-0.048
0.332	-0.048
0.333	-0.048
0.334	-0.048
0.335	-0.048
0.336	-0.048
0.337	-0.049
0.338	-0.049
0.339	-0.049
0.34	-0.049
0.341	-0.049
0.342	-0.048
0.343	-0.048
0.344	-0.048
0.345	-0.047
0.346	-0.047
0.347	-0.047
0.348	-0.046
0.349	-0.046
0.35	-0.046
0.351	-0.046
0.352	-0.045
0.353	-0.045
0.354	-0.045
0.355	-0.045
0.356	-0.045
0.357	-0.045
0.358	-0.045
0.359	-0.045
0.36	-0.045
0.361	-0.045
0.362	-0.045
0.363	-0.045
0.364	-0.045
0.365	-0.044
0.366	-0.044
0.367	-0.044
0.368	-0.044
0.369	-0.043
0.37	-0.043
0.371	-0.043
0.372	-0.043
0.373	-0.042
0.374	-0.042
0.375	-0.042
0.376	-0.042
0.377	-0.042
0.378	-0.042
0.379	-0.042
0.38	-0.042
0.381	-0.042
0.382	-0.042
0.383	-0.042
0.384	-0.042
0.385	-0.041
0.386	-0.041
0.387	-0.041
0.388	-0.041
0.389	-0.041
0.39	-0.041
0.391	-0.04
0.392	-0.04
0.393	-0.04
0.394	-0.04
0.395	-0.04
0.396	-0.039
0.397	-0.039
0.398	-0.039
0.399	-0.039
0.4	-0.039
0.401	-0.039
0.402	-0.039
0.403	-0.038
0.404	-0.038
0.405	-0.038
0.406	-0.037
0.407	-0.037
0.408	-0.036
0.409	-0.035
0.41	-0.033
0.411	-0.031
0.412	-0.029
0.413	-0.027
0.414	-0.024
0.415	-0.021
0.416	-0.018
0.417	-0.014
0.418	-0.01
0.419	-0.006
0.42	-0.002
0.421	0.002
0.422	0.007
0.423	0.012
0.424	0.016
0.425	0.021
0.426	0.026
0.427	0.03
0.428	0.035
0.429	0.039
0.43	0.043
0.431	0.048
0.432	0.052
0.433	0.056
0.434	0.059
0.435	0.063
0.436	0.067
0.437	0.071
0.438	0.075
0.439	0.079
0.44	0.082
0.441	0.086
0.442	0.09
0.443	0.094
0.444	0.098
0.445	0.102
0.446	0.106
0.447	0.11
0.448	0.114
0.449	0.118
0.45	0.122
0.451	0.126
0.452	0.129
0.453	0.133
0.454	0.136
0.455	0.139
0.456	0.141
0.457	0.144
0.458	0.147
0.459	0.149
0.46	0.151
0.461	0.153
0.462	0.155
0.463	0.156
0.464	0.158
0.465	0.159
0.466	0.161
0.467	0.162
0.468	0.164
0.469	0.165
0.47	0.166
0.471	0.168
0.472	0.169
0.473	0.17
0.474	0.172
0.475	0.173
0.476	0.174
0.477	0.175
0.478	0.177
0.479	0.178
0.48	0.179
0.481	0.18
0.482	0.18
0.483	0.181
0.484	0.182
0.485	0.182
0.486	0.182
0.487	0.182
0.488	0.183
0.489	0.183
0.49	0.182
0.491	0.182
0.492	0.182
0.493	0.182
0.494	0.181
0.495	0.18
0.496	0.18
0.497	0.179
0.498	0.178
0.499	0.177
0.5	0.176
0.501	0.174
0.502	0.172
0.503	0.17
0.504	0.168
0.505	0.166
0.506	0.163
0.507	0.16
0.508	0.157
0.509	0.154
0.51	0.151
0.511	0.147
0.512	0.144
0.513	0.14
0.514	0.136
0.515	0.132
0.516	0.128
0.517	0.124
0.518	0.12
0.519	0.116
0.52	0.112
0.521	0.107
0.522	0.103
0.523	0.099
0.524	0.094
0.525	0.09
0.526	0.085
0.527	0.08
0.528	0.075
0.529	0.07
0.53	0.065
0.531	0.059
0.532	0.054
0.533	0.048
0.534	0.043
0.535	0.037
0.536	0.031
0.537	0.026
0.538	0.02
0.539	0.014
0.54	0.009
0.541	0.003
0.542	-0.002
0.543	-0.007
0.544	-0.012
0.545	-0.017
0.546	-0.022
0.547	-0.027
0.548	-0.032
0.549	-0.037
0.55	-0.041
0.551	-0.045
0.552	-0.049
0.553	-0.053
0.554	-0.057
0.555	-0.06
0.556	-0.063
0.557	-0.066
0.558	-0.069
0.559	-0.071
0.56	-0.073
0.561	-0.074
0.562	-0.075
0.563	-0.076
0.564	-0.077
0.565	-0.078
0.566	-0.078
0.567	-0.078
0.568	-0.078
0.569	-0.077
0.57	-0.077
0.571	-0.077
0.572	-0.076
0.573	-0.076
0.574	-0.076
0.575	-0.075
0.576	-0.075
0.577	-0.075
0.578	-0.074
0.579	-0.074
0.58	-0.074
0.581	-0.074
0.582	-0.074
0.583	-0.074
0.584	-0.073
0.585	-0.073
0.586	-0.073
0.587	-0.073
0.588	-0.073
0.589	-0.072
0.59	-0.072
0.591	-0.072
0.592	-0.072
0.593	-0.071
0.594	-0.071
0.595	-0.071
0.596	-0.07
0.597	-0.07
0.598	-0.07
0.599	-0.07
0.6	-0.07
0.601	-0.069
0.602	-0.069
0.603	-0.069
0.604	-0.069
0.605	-0.069
0.606	-0.068
0.607	-0.068
0.608	-0.068
0.609	-0.068
0.61	-0.068
0.611	-0.067
0.612	-0.067
0.613	-0.067
0.614	-0.067
0.615	-0.066
0.616	-0.066
0.617	-0.066
0.618	-0.066
0.619	-0.065
0.62	-0.065
0.621	-0.065
0.622	-0.065
0.623	-0.064
0.624	-0.064
0.625	-0.064
0.626	-0.064
0.627	-0.064
0.628	-0.063
0.629	-0.063
0.63	-0.063
0.631	-0.063
0.632	-0.063
0.633	-0.062
0.634	-0.062
0.635	-0.062
0.636	-0.062
0.637	-0.062
0.638	-0.061
0.639	-0.061
0.64	-0.061
0.641	-0.061
0.642	-0.061
0.643	-0.06
0.644	-0.06
0.645	-0.06
0.646	-0.06
0.647	-0.06
0.648	-0.059
0.649	-0.059
0.65	-0.059
0.651	-0.059
0.652	-0.059
0.653	-0.059
0.654	-0.058
0.655	-0.058
0.656	-0.058
0.657	-0.058
0.658	-0.058
0.659	-0.058
0.66	-0.057
0.661	-0.057
0.662	-0.057
0.663	-0.057
0.664	-0.056
0.665	-0.056
0.666	-0.056
0.667	-0.056
0.668	-0.056
0.669	-0.055
0.67	-0.055
0.671	-0.055
0.672	-0.055
0.673	-0.055
0.674	-0.055
0.675	-0.055
0.676	-0.055
0.677	-0.054
0.678	-0.054
0.679	-0.054
0.68	-0.054
0.681	-0.054
0.682	-0.053
0.683	-0.053
0.684	-0.053
0.685	-0.052
0.686	-0.052
0.687	-0.052
0.688	-0.052
0.689	-0.051
0.69	-0.051
0.691	-0.051
0.692	-0.051
0.693	-0.051
0.694	-0.051
0.695	-0.051
0.696	-0.051
0.697	-0.051
0.698	-0.051
0.699	-0.051
0.7	-0.051
0.701	-0.051
0.702	-0.05
0.703	-0.05
0.704	-0.049
0.705	-0.049
0.706	-0.049
0.707	-0.048
0.708	-0.048
0.709	-0.048
0.71	-0.048
0.711	-0.048
0.712	-0.048
0.713	-0.048
0.714	-0.048
0.715	-0.048
0.716	-0.048
0.717	-0.048
0.718	-0.047
0.719	-0.046
0.72	-0.045
0.721	-0.043
0.722	-0.041
0.723	-0.038
0.724	-0.034
0.725	-0.03
0.726	-0.025
0.727	-0.02
0.728	-0.015
0.729	-0.009
0.73	-0.003
0.731	0.002
0.732	0.008
0.733	0.014
0.734	0.019
0.735	0.024
0.736	0.029
0.737	0.033
0.738	0.037
0.739	0.04
0.74	0.044
0.741	0.046
0.742	0.049
0.743	0.052
0.744	0.054
0.745	0.057
0.746	0.059
0.747	0.062
0.748	0.065
0.749	0.067
0.75	0.07
0.751	0.073
0.752	0.075
0.753	0.078
0.754	0.08
0.755	0.081
0.756	0.083
0.757	0.083
0.758	0.084
0.759	0.083
0.76	0.083
0.761	0.081
0.762	0.079
0.763	0.077
0.764	0.074
0.765	0.071
0.766	0.068
0.767	0.064
0.768	0.06
0.769	0.056
0.77	0.052
0.771	0.048
0.772	0.044
0.773	0.04
0.774	0.035
0.775	0.031
0.776	0.027
0.777	0.022
0.778	0.018
0.779	0.013
0.78	0.008
0.781	0.003
0.782	-0.002
0.783	-0.007
0.784	-0.012
0.785	-0.017
0.786	-0.022
0.787	-0.026
0.788	-0.031
0.789	-0.035
0.79	-0.038
0.791	-0.041
0.792	-0.044
0.793	-0.046
0.794	-0.048
0.795	-0.049
0.796	-0.05
0.797	-0.051
0.798	-0.051
0.799	-0.051
0.8	-0.051
0.801	-0.051
0.802	-0.051
0.803	-0.05
0.804	-0.05
0.805	-0.05
0.806	-0.05
0.807	-0.05
0.808	-0.05
0.809	-0.05
0.81	-0.05
0.811	-0.05
0.812	-0.05
0.813	-0.05
0.814	-0.05
0.815	-0.05
0.816	-0.05
0.817	-0.05
0.818	-0.049
0.819	-0.049
0.82	-0.049
0.821	-0.048
0.822	-0.048
0.823	-0.048
0.824	-0.047
0.825	-0.047
0.826	-0.047
0.827	-0.047
0.828	-0.046
0.829	-0.046
0.83	-0.046
0.831	-0.046
0.832	-0.046
0.833	-0.046
0.834	-0.046
0.835	-0.046
0.836	-0.046
0.837	-0.046
0.838	-0.046
0.839	-0.046
0.84	-0.046
0.841	-0.045
0.842	-0.045
0.843	-0.045
0.844	-0.045
0.845	-0.044
0.846	-0.044
0.847	-0.044
0.848	-0.043
0.849	-0.043
0.85	-0.043
0.851	-0.043
0.852	-0.043
0.853	-0.043
0.854	-0.043
0.855	-0.043
0.856	-0.043
0.857	-0.043
0.858	-0.043
0.859	-0.043
0.86	-0.043
0.861	-0.043
0.862	-0.043
0.863	-0.043
0.864	-0.042
0.865	-0.042
0.866	-0.041
0.867	-0.04
0.868	-0.04
0.869	-0.039
0.87	-0.039
0.871	-0.038
0.872	-0.038
0.873	-0.038
0.874	-0.039
0.875	-0.04
0.876	-0.042
0.877	-0.045
0.878	-0.048
0.879	-0.053
0.88	-0.058
0.881	-0.064
0.882	-0.071
0.883	-0.078
0.884	-0.086
0.885	-0.093
0.886	-0.101
0.887	-0.108
0.888	-0.114
0.889	-0.118
0.89	-0.121
0.891	-0.121
0.892	-0.118
0.893	-0.112
0.894	-0.101
0.895	-0.087
0.896	-0.069
0.897	-0.047
0.898	-0.02
0.899	0.011
0.9	0.046
0.901	0.084
0.902	0.125
0.903	0.169
0.904	0.213
0.905	0.258
0.906	0.303
0.907	0.347
0.908	0.389
0.909	0.427
0.91	0.462
0.911	0.492
0.912	0.517
0.913	0.536
0.914	0.549
0.915	0.556
0.916	0.557
0.917	0.552
0.918	0.54
0.919	0.523
0.92	0.5
0.921	0.473
0.922	0.442
0.923	0.408
0.924	0.371
0.925	0.332
0.926	0.292
0.927	0.251
0.928	0.211
0.929	0.171
0.93	0.133
0.931	0.096
0.932	0.061
0.933	0.029
0.934	0
0.935	-0.026
0.936	-0.049
0.937	-0.068
0.938	-0.085
0.939	-0.098
0.94	-0.107
0.941	-0.114
0.942	-0.119
0.943	-0.121
0.944	-0.12
0.945	-0.117
0.946	-0.113
0.947	-0.109
0.948	-0.103
0.949	-0.096
0.95	-0.09
0.951	-0.083
0.952	-0.078
0.953	-0.072
0.954	-0.068
0.955	-0.064
0.956	-0.061
0.957	-0.059
0.958	-0.058
0.959	-0.057
0.96	-0.058
0.961	-0.058
0.962	-0.059
0.963	-0.061
0.964	-0.062
0.965	-0.063
0.966	-0.064
0.967	-0.064
0.968	-0.065
0.969	-0.065
0.97	-0.064
0.971	-0.064
0.972	-0.063
0.973	-0.062
0.974	-0.061
0.975	-0.06
0.976	-0.059
0.977	-0.058
0.978	-0.057
0.979	-0.057
0.98	-0.057
0.981	-0.057
0.982	-0.057
0.983	-0.057
0.984	-0.058
0.985	-0.058
0.986	-0.059
0.987	-0.059
0.988	-0.059
0.989	-0.059
0.99	-0.059
0.991	-0.059
0.992	-0.058
0.993	-0.058
0.994	-0.057
0.995	-0.056
0.996	-0.056
0.997	-0.055
0.998	-0.055
0.999	-0.054
1	-0.054
1.001	-0.054
1.002	-0.054
1.003	-0.054
1.004	-0.054
1.005	-0.054
1.006	-0.054
1.007	-0.054
1.008	-0.054
1.009	-0.054
1.01	-0.054
1.011	-0.054
1.012	-0.054
1.013	-0.054
1.014	-0.053
1.015	-0.053
1.016	-0.053
1.017	-0.052
1.018	-0.052
1.019	-0.051
1.02	-0.051
1.021	-0.051
1.022	-0.051
1.023	-0.051
1.024	-0.051
1.025	-0.051
1.026	-0.051
1.027	-0.051
1.028	-0.051
1.029	-0.051
1.03	-0.051
1.031	-0.051
1.032	-0.05
1.033	-0.05
1.034	-0.05
1.035	-0.05
1.036	-0.049
1.037	-0.049
1.038	-0.049
1.039	-0.048
1.04	-0.048
1.041	-0.048
1.042	-0.048
1.043	-0.047
1.044	-0.047
1.045	-0.047
1.046	-0.047
1.047	-0.047
1.048	-0.047
1.049	-0.047
1.05	-0.047
1.051	-0.047
1.052	-0.047
1.053	-0.047
1.054	-0.047
1.055	-0.047
1.056	-0.046
1.057	-0.046
1.058	-0.046
1.059	-0.046
1.06	-0.045
1.061	-0.045
1.062	-0.045
1.063	-0.045
1.064	-0.045
1.065	-0.044
1.066	-0.044
1.067	-0.044
1.068	-0.044
1.069	-0.044
1.07	-0.044
1.071	-0.044
1.072	-0.043
1.073	-0.043
1.074	-0.043
1.075	-0.043
1.076	-0.042
1.077	-0.041
1.078	-0.04
1.079	-0.039
1.08	-0.038
1.081	-0.036
1.082	-0.034
1.083	-0.032
1.084	-0.029
1.085	-0.026
1.086	-0.023
1.087	-0.019
1.088	-0.015
1.089	-0.011
1.09	-0.007
1.091	-0.003
1.092	0.002
1.093	0.007
1.094	0.011
1.095	0.016
1.096	0.02
1.097	0.025
1.098	0.029
1.099	0.034
1.1	0.038
1.101	0.042
1.102	0.046
1.103	0.05
1.104	0.054
1.105	0.058
1.106	0.062
1.107	0.066
1.108	0.07
1.109	0.073
1.11	0.077
1.111	0.081
1.112	0.085
1.113	0.09
1.114	0.094
1.115	0.098
1.116	0.102
1.117	0.106
1.118	0.11
1.119	0.113
1.12	0.117
1.121	0.121
1.122	0.124
1.123	0.128
1.124	0.131
1.125	0.134
1.126	0.137
1.127	0.139
1.128	0.142
1.129	0.144
1.13	0.146
1.131	0.148
1.132	0.15
1.133	0.152
1.134	0.154
1.135	0.155
1.136	0.157
1.137	0.158
1.138	0.16
1.139	0.161
1.14	0.162
1.141	0.164
1.142	0.165
1.143	0.166
1.144	0.167
1.145	0.169
1.146	0.17
1.147	0.171
1.148	0.172
1.149	0.173
1.15	0.174
1.151	0.175
1.152	0.176
1.153	0.177
1.154	0.178
1.155	0.178
1.156	0.179
1.157	0.179
1.158	0.179
1.159	0.179
1.16	0.179
1.161	0.179
1.162	0.178
1.163	0.178
1.164	0.178
1.165	0.177
1.166	0.176
1.167	0.175
1.168	0.175
1.169	0.174
1.17	0.172
1.171	0.171
1.172	0.169
1.173	0.168
1.174	0.166
1.175	0.163
1.176	0.161
1.177	0.158
1.178	0.155
1.179	0.152
1.18	0.148
1.181	0.145
1.182	0.141
1.183	0.137
1.184	0.133
1.185	0.129
1.186	0.125
1.187	0.121
1.188	0.117
1.189	0.113
1.19	0.109
1.191	0.105
1.192	0.101
1.193	0.096
1.194	0.092
1.195	0.088
1.196	0.083
1.197	0.079
1.198	0.074
1.199	0.069
1.2	0.063
1.201	0.058
1.202	0.053
1.203	0.047
1.204	0.041
1.205	0.035
1.206	0.03
1.207	0.024
1.208	0.018
1.209	0.013
1.21	0.007
1.211	0.002
1.212	-0.004
1.213	-0.009
1.214	-0.014
1.215	-0.019
1.216	-0.023
1.217	-0.028
1.218	-0.033
1.219	-0.038
1.22	-0.042
1.221	-0.046
1.222	-0.051
1.223	-0.055
1.224	-0.059
1.225	-0.062
1.226	-0.066
1.227	-0.069
1.228	-0.072
1.229	-0.074
1.23	-0.076
1.231	-0.077
1.232	-0.078
1.233	-0.079
1.234	-0.08
1.235	-0.08
1.236	-0.08
1.237	-0.08
1.238	-0.08
1.239	-0.079
1.24	-0.079
1.241	-0.079
1.242	-0.079
1.243	-0.079
1.244	-0.079
1.245	-0.079
1.246	-0.078
1.247	-0.078
1.248	-0.078
1.249	-0.077
1.25	-0.075
1.251	-0.074
1.252	-0.071
1.253	-0.068
1.254	-0.065
1.255	-0.061
1.256	-0.056
1.257	-0.051
1.258	-0.046
1.259	-0.04
1.26	-0.034
1.261	-0.028
1.262	-0.022
1.263	-0.016
1.264	-0.011
1.265	-0.006
1.266	-0.001
1.267	0.003
1.268	0.008
1.269	0.011
1.27	0.014
1.271	0.018
1.272	0.02
1.273	0.023
1.274	0.026
1.275	0.028
1.276	0.031
1.277	0.034
1.278	0.036
1.279	0.039
1.28	0.042
1.281	0.045
1.282	0.047
1.283	0.05
1.284	0.052
1.285	0.054
1.286	0.056
1.287	0.057
1.288	0.057
1.289	0.057
1.29	0.056
1.291	0.055
1.292	0.053
1.293	0.051
1.294	0.048
1.295	0.045
1.296	0.042
1.297	0.039
1.298	0.035
1.299	0.031
1.3	0.027
1.301	0.023
1.302	0.019
1.303	0.015
1.304	0.011
1.305	0.007
1.306	0.002
1.307	-0.002
1.308	-0.007
1.309	-0.011
1.31	-0.016
1.311	-0.021
1.312	-0.026
1.313	-0.031
1.314	-0.036
1.315	-0.04
1.316	-0.045
1.317	-0.05
1.318	-0.054
1.319	-0.058
1.32	-0.061
1.321	-0.064
1.322	-0.067
1.323	-0.069
1.324	-0.071
1.325	-0.072
1.326	-0.073
1.327	-0.074
1.328	-0.074
1.329	-0.074
1.33	-0.074
1.331	-0.074
1.332	-0.074
1.333	-0.073
1.334	-0.073
1.335	-0.073
1.336	-0.073
1.337	-0.072
1.338	-0.072
1.339	-0.072
1.34	-0.072
1.341	-0.072
1.342	-0.072
1.343	-0.072
1.344	-0.072
1.345	-0.072
1.346	-0.072
1.347	-0.072
1.348	-0.071
1.349	-0.071
1.35	-0.071
1.351	-0.07
1.352	-0.07
1.353	-0.069
1.354	-0.069
1.355	-0.069
1.356	-0.068
1.357	-0.068
1.358	-0.068
1.359	-0.068
1.36	-0.068
1.361	-0.068
1.362	-0.068
1.363	-0.068
1.364	-0.067
1.365	-0.067
1.366	-0.067
1.367	-0.067
1.368	-0.067
1.369	-0.067
1.37	-0.066
1.371	-0.066
1.372	-0.066
1.373	-0.065
1.374	-0.065
1.375	-0.064
1.376	-0.064
1.377	-0.064
1.378	-0.063
1.379	-0.063
1.38	-0.063
1.381	-0.063
1.382	-0.063
1.383	-0.063
1.384	-0.063
1.385	-0.063
1.386	-0.063
1.387	-0.063
1.388	-0.063
1.389	-0.063
1.39	-0.063
1.391	-0.063
1.392	-0.062
1.393	-0.062
1.394	-0.062
1.395	-0.061
1.396	-0.06
1.397	-0.06
1.398	-0.059
1.399	-0.058
1.4	-0.058
1.401	-0.057
1.402	-0.057
1.403	-0.057
1.404	-0.057
1.405	-0.059
1.406	-0.06
1.407	-0.063
1.408	-0.066
1.409	-0.07
1.41	-0.075
1.411	-0.081
1.412	-0.087
1.413	-0.094
1.414	-0.102
1.415	-0.109
1.416	-0.117
1.417	-0.124
1.418	-0.13
1.419	-0.135
1.42	-0.138
1.421	-0.138
1.422	-0.136
1.423	-0.131
1.424	-0.121
1.425	-0.108
1.426	-0.091
1.427	-0.069
1.428	-0.043
1.429	-0.013
1.43	0.021
1.431	0.059
1.432	0.099
1.433	0.142
1.434	0.187
1.435	0.232
1.436	0.277
1.437	0.321
1.438	0.364
1.439	0.403
1.44	0.438
1.441	0.47
1.442	0.496
1.443	0.517
1.444	0.531
1.445	0.539
1.446	0.541
1.447	0.537
1.448	0.527
1.449	0.511
1.45	0.489
1.451	0.463
1.452	0.433
1.453	0.4
1.454	0.363
1.455	0.324
1.456	0.285
1.457	0.244
1.458	0.203
1.459	0.163
1.46	0.125
1.461	0.088
1.462	0.053
1.463	0.02
1.464	-0.01
1.465	-0.036
1.466	-0.06
1.467	-0.08
1.468	-0.097
1.469	-0.11
1.47	-0.121
1.471	-0.128
1.472	-0.133
1.473	-0.135
1.474	-0.135
1.475	-0.133
1.476	-0.129
1.477	-0.124
1.478	-0.119
1.479	-0.112
1.48	-0.105
1.481	-0.099
1.482	-0.093
1.483	-0.088
1.484	-0.083
1.485	-0.079
1.486	-0.076
1.487	-0.074
1.488	-0.072
1.489	-0.072
1.49	-0.072
1.491	-0.072
1.492	-0.073
1.493	-0.074
1.494	-0.075
1.495	-0.077
1.496	-0.077
1.497	-0.078
1.498	-0.078
1.499	-0.078
1.5	-0.078
1.501	-0.077
1.502	-0.076
1.503	-0.075
1.504	-0.074
1.505	-0.073
1.506	-0.072
1.507	-0.071
1.508	-0.071
1.509	-0.07
1.51	-0.07
1.511	-0.07
1.512	-0.07
1.513	-0.07
1.514	-0.07
1.515	-0.071
1.516	-0.071
1.517	-0.071
1.518	-0.071
1.519	-0.071
1.52	-0.071
1.521	-0.071
1.522	-0.071
1.523	-0.07
1.524	-0.07
1.525	-0.069
1.526	-0.068
1.527	-0.068
1.528	-0.067
1.529	-0.067
1.53	-0.067
1.531	-0.066
1.532	-0.066
1.533	-0.066
1.534	-0.066
1.535	-0.066
1.536	-0.066
1.537	-0.066
1.538	-0.066
1.539	-0.066
1.54	-0.066
1.541	-0.066
1.542	-0.066
1.543	-0.066
1.544	-0.065
1.545	-0.065
1.546	-0.065
1.547	-0.064
1.548	-0.064
1.549	-0.063
1.55	-0.063
1.551	-0.063
1.552	-0.062
1.553	-0.062
1.554	-0.062
1.555	-0.062
1.556	-0.062
1.557	-0.062
1.558	-0.062
1.559	-0.062
1.56	-0.062
1.561	-0.061
1.562	-0.061
1.563	-0.061
1.564	-0.061
1.565	-0.061
1.566	-0.06
1.567	-0.06
1.568	-0.06
1.569	-0.059
1.57	-0.059
1.571	-0.059
1.572	-0.059
1.573	-0.058
1.574	-0.058
1.575	-0.058
1.576	-0.058
1.577	-0.058
1.578	-0.058
1.579	-0.058
1.58	-0.058
1.581	-0.058
1.582	-0.058
1.583	-0.058
1.584	-0.057
1.585	-0.057
1.586	-0.057
1.587	-0.057
1.588	-0.056
1.589	-0.056
1.59	-0.056
1.591	-0.056
1.592	-0.055
1.593	-0.055
1.594	-0.055
1.595	-0.054
1.596	-0.054
1.597	-0.054
1.598	-0.054
1.599	-0.054
1.6	-0.054
1.601	-0.053
1.602	-0.053
1.603	-0.053
1.604	-0.053
1.605	-0.052
1.606	-0.052
1.607	-0.051
1.608	-0.05
1.609	-0.049
1.61	-0.048
1.611	-0.046
1.612	-0.045
1.613	-0.042
1.614	-0.04
1.615	-0.037
1.616	-0.034
1.617	-0.03
1.618	-0.026
1.619	-0.022
1.62	-0.018
1.621	-0.013
1.622	-0.009
1.623	-0.004
1.624	0.001
1.625	0.005
1.626	0.01
1.627	0.015
1.628	0.019
1.629	0.024
1.63	0.028
1.631	0.032
1.632	0.036
1.633	0.041
1.634	0.045
1.635	0.048
1.636	0.052
1.637	0.056
1.638	0.06
1.639	0.064
1.64	0.068
1.641	0.072
1.642	0.076
1.643	0.08
1.644	0.084
1.645	0.088
1.646	0.092
1.647	0.096
1.648	0.1
1.649	0.104
1.65	0.108
1.651	0.111
1.652	0.115
1.653	0.119
1.654	0.122
1.655	0.125
1.656	0.128
1.657	0.131
1.658	0.133
1.659	0.136
1.66	0.138
1.661	0.14
1.662	0.142
1.663	0.144
1.664	0.145
1.665	0.147
1.666	0.148
1.667	0.15
1.668	0.151
1.669	0.153
1.67	0.154
1.671	0.155
1.672	0.157
1.673	0.158
1.674	0.16
1.675	0.161
1.676	0.162
1.677	0.164
1.678	0.165
1.679	0.166
1.68	0.167
1.681	0.168
1.682	0.169
1.683	0.169
1.684	0.17
1.685	0.171
1.686	0.171
1.687	0.171
1.688	0.171
1.689	0.171
1.69	0.171
1.691	0.171
1.692	0.171
1.693	0.171
1.694	0.17
1.695	0.17
1.696	0.169
1.697	0.169
1.698	0.168
1.699	0.167
1.7	0.166
1.701	0.164
1.702	0.163
1.703	0.161
1.704	0.159
1.705	0.157
1.706	0.154
1.707	0.151
1.708	0.148
1.709	0.145
1.71	0.142
1.711	0.139
1.712	0.135
1.713	0.131
1.714	0.127
1.715	0.124
1.716	0.12
1.717	0.116
1.718	0.112
1.719	0.108
1.72	0.103
1.721	0.099
1.722	0.095
1.723	0.091
1.724	0.086
1.725	0.082
1.726	0.077
1.727	0.072
1.728	0.067
1.729	0.062
1.73	0.057
1.731	0.052
1.732	0.047
1.733	0.041
1.734	0.035
1.735	0.03
1.736	0.024
1.737	0.019
1.738	0.013
1.739	0.008
1.74	0.002
1.741	-0.003
1.742	-0.009
1.743	-0.014
1.744	-0.019
1.745	-0.024
1.746	-0.029
1.747	-0.034
1.748	-0.039
1.749	-0.044
1.75	-0.048
1.751	-0.053
1.752	-0.057
1.753	-0.061
1.754	-0.064
1.755	-0.068
1.756	-0.071
1.757	-0.074
1.758	-0.077
1.759	-0.079
1.76	-0.081
1.761	-0.082
1.762	-0.084
1.763	-0.085
1.764	-0.086
1.765	-0.086
1.766	-0.086
1.767	-0.086
1.768	-0.086
1.769	-0.086
1.77	-0.086
1.771	-0.086
1.772	-0.085
1.773	-0.085
1.774	-0.084
1.775	-0.084
1.776	-0.084
1.777	-0.083
1.778	-0.083
1.779	-0.083
1.78	-0.083
1.781	-0.083
1.782	-0.082
1.783	-0.082
1.784	-0.082
1.785	-0.082
1.786	-0.081
1.787	-0.081
1.788	-0.081
1.789	-0.08
1.79	-0.08
1.791	-0.08
1.792	-0.08
1.793	-0.079
1.794	-0.079
1.795	-0.079
1.796	-0.079
1.797	-0.078
1.798	-0.078
1.799	-0.078
1.8	-0.078
1.801	-0.078
1.802	-0.077
1.803	-0.077
1.804	-0.077
1.805	-0.077
1.806	-0.077
1.807	-0.076
1.808	-0.076
1.809	-0.076
1.81	-0.075
1.811	-0.075
1.812	-0.075
1.813	-0.074
1.814	-0.074
1.815	-0.074
1.816	-0.074
1.817	-0.073
1.818	-0.073
1.819	-0.073
1.82	-0.073
1.821	-0.072
1.822	-0.072
1.823	-0.072
1.824	-0.072
1.825	-0.072
1.826	-0.072
1.827	-0.071
1.828	-0.071
1.829	-0.071
1.83	-0.071
1.831	-0.07
1.832	-0.07
1.833	-0.07
1.834	-0.07
1.835	-0.069
1.836	-0.069
1.837	-0.069
1.838	-0.069
1.839	-0.068
1.84	-0.068
1.841	-0.068
1.842	-0.068
1.843	-0.067
1.844	-0.067
1.845	-0.067
1.846	-0.067
1.847	-0.067
1.848	-0.067
1.849	-0.066
1.85	-0.066
1.851	-0.066
1.852	-0.066
1.853	-0.065
1.854	-0.065
1.855	-0.065
1.856	-0.065
1.857	-0.064
1.858	-0.064
1.859	-0.064
1.86	-0.064
1.861	-0.063
1.862	-0.063
1.863	-0.063
1.864	-0.063
1.865	-0.063
1.866	-0.062
1.867	-0.062
1.868	-0.062
1.869	-0.062
1.87	-0.062
1.871	-0.061
1.872	-0.061
1.873	-0.061
1.874	-0.061
1.875	-0.061
1.876	-0.061
1.877	-0.06
1.878	-0.06
1.879	-0.06
1.88	-0.06
1.881	-0.06
1.882	-0.059
1.883	-0.059
1.884	-0.059
1.885	-0.059
1.886	-0.059
1.887	-0.058
1.888	-0.058
1.889	-0.058
1.89	-0.058
1.891	-0.058
1.892	-0.057
1.893	-0.057
1.894	-0.057
1.895	-0.057
1.896	-0.057
1.897	-0.056
1.898	-0.056
1.899	-0.056
1.9	-0.056
1.901	-0.056
1.902	-0.056
1.903	-0.055
1.904	-0.055
1.905	-0.055
1.906	-0.055
1.907	-0.055
1.908	-0.055
1.909	-0.054
1.91	-0.054
1.911	-0.054
1.912	-0.054
1.913	-0.054
1.914	-0.053
1.915	-0.053
1.916	-0.053
1.917	-0.053
1.918	-0.053
1.919	-0.053
1.92	-0.052
1.921	-0.052
1.922	-0.052
1.923	-0.052
1.924	-0.052
1.925	-0.051
1.926	-0.051
1.927	-0.051
1.928	-0.051
1.929	-0.051
1.93	-0.051
1.931	-0.05
1.932	-0.05
1.933	-0.05
1.934	-0.05
1.935	-0.05
1.936	-0.05
1.937	-0.05
1.938	-0.049
1.939	-0.049
1.94	-0.049
1.941	-0.049
1.942	-0.049
1.943	-0.048
1.944	-0.048
1.945	-0.048
1.946	-0.048
1.947	-0.048
1.948	-0.048
1.949	-0.047
1.95	-0.047
1.951	-0.047
1.952	-0.047
1.953	-0.047
1.954	-0.047
1.955	-0.046
1.956	-0.046
1.957	-0.046
1.958	-0.046
1.959	-0.046
1.96	-0.046
1.961	-0.046
1.962	-0.046
1.963	-0.045
1.964	-0.045
1.965	-0.045
1.966	-0.045
1.967	-0.045
1.968	-0.045
1.969	-0.045
1.97	-0.045
1.971	-0.045
1.972	-0.044
1.973	-0.044
1.974	-0.044
1.975	-0.044
1.976	-0.044
1.977	-0.044
1.978	-0.043
1.979	-0.043
1.98	-0.043
1.981	-0.043
1.982	-0.043
1.983	-0.043
1.984	-0.043
1.985	-0.042
1.986	-0.042
1.987	-0.042
1.988	-0.042
1.989	-0.042
1.99	-0.042
1.991	-0.041
1.992	-0.041
1.993	-0.041
1.994	-0.041
1.995	-0.041
1.996	-0.041
1.997	-0.041
1.998	-0.04
1.999	-0.04
2	-0.04
2.001	-0.04
2.002	-0.04
2.003	-0.04
2.004	-0.04
2.005	-0.04
2.006	-0.039
2.007	-0.039
2.008	-0.039
2.009	-0.039
2.01	-0.039
2.011	-0.039
2.012	-0.039
2.013	-0.038
2.014	-0.038
2.015	-0.038
2.016	-0.038
2.017	-0.038
2.018	-0.038
2.019	-0.037
2.02	-0.037
2.021	-0.037
2.022	-0.037
2.023	-0.037
2.024	-0.037
2.025	-0.037
2.026	-0.037
2.027	-0.037
2.028	-0.036
2.029	-0.036
2.03	-0.036
2.031	-0.036
2.032	-0.036
2.033	-0.036
2.034	-0.036
2.035	-0.036
2.036	-0.036
2.037	-0.036
2.038	-0.036
2.039	-0.035
2.04	-0.035
2.041	-0.035
2.042	-0.035
2.043	-0.035
2.044	-0.035
2.045	-0.035
2.046	-0.035
2.047	-0.034
2.048	-0.034
2.049	-0.034
2.05	-0.034
2.051	-0.034
2.052	-0.034
2.053	-0.034
2.054	-0.034
2.055	-0.034
2.056	-0.034
2.057	-0.034
2.058	-0.034
2.059	-0.033
2.06	-0.033
2.061	-0.033
2.062	-0.033
2.063	-0.033
2.064	-0.033
2.065	-0.032
2.066	-0.032
2.067	-0.032
2.068	-0.032
2.069	-0.032
2.07	-0.032
2.071	-0.031
2.072	-0.031
2.073	-0.031
2.074	-0.031
2.075	-0.031
2.076	-0.031
2.077	-0.031
2.078	-0.031
2.079	-0.031
2.08	-0.031
2.081	-0.031
2.082	-0.031
2.083	-0.03
2.084	-0.03
2.085	-0.03
2.086	-0.03
2.087	-0.03
2.088	-0.03
2.089	-0.029
2.09	-0.029
2.091	-0.029
2.092	-0.029
2.093	-0.029
2.094	-0.029
2.095	-0.029
2.096	-0.029
2.097	-0.029
2.098	-0.029
2.099	-0.029
2.1	-0.029
2.101	-0.029
2.102	-0.029
2.103	-0.028
2.104	-0.028
2.105	-0.028
2.106	-0.028
2.107	-0.027
2.108	-0.027
2.109	-0.027
2.11	-0.027
2.111	-0.027
2.112	-0.027
2.113	-0.027
2.114	-0.027
2.115	-0.027
2.116	-0.027
2.117	-0.027
2.118	-0.028
2.119	-0.028
2.12	-0.028
2.121	-0.027
2.122	-0.027
2.123	-0.027
2.124	-0.027
2.125	-0.026
2.126	-0.026
2.127	-0.026
2.128	-0.025
2.129	-0.025
2.13	-0.025
2.131	-0.025
2.132	-0.025
2.133	-0.025
2.134	-0.025
2.135	-0.026
2.136	-0.026
2.137	-0.026
2.138	-0.025
2.139	-0.025
2.14	-0.023
2.141	-0.022
2.142	-0.02
2.143	-0.017
2.144	-0.014
2.145	-0.01
2.146	-0.006
2.147	-0.001
2.148	0.004
2.149	0.009
2.15	0.015
2.151	0.021
2.152	0.026
2.153	0.032
2.154	0.037
2.155	0.042
2.156	0.047
2.157	0.052
2.158	0.056
2.159	0.059
2.16	0.062
2.161	0.065
2.162	0.068
2.163	0.071
2.164	0.073
2.165	0.076
2.166	0.078
2.167	0.081
2.168	0.083
2.169	0.086
2.17	0.089
2.171	0.091
2.172	0.094
2.173	0.096
2.174	0.098
2.175	0.1
2.176	0.101
2.177	0.102
2.178	0.103
2.179	0.103
2.18	0.102
2.181	0.101
2.182	0.099
2.183	0.097
2.184	0.095
2.185	0.092
2.186	0.088
2.187	0.085
2.188	0.081
2.189	0.077
2.19	0.073
2.191	0.069
2.192	0.065
2.193	0.061
2.194	0.056
2.195	0.052
2.196	0.048
2.197	0.043
2.198	0.038
2.199	0.034
2.2	0.029
2.201	0.024
2.202	0.019
2.203	0.014
2.204	0.008
2.205	0.003
2.206	-0.001
2.207	-0.006
2.208	-0.011
2.209	-0.015
2.21	-0.019
2.211	-0.022
2.212	-0.025
2.213	-0.027
2.214	-0.029
2.215	-0.031
2.216	-0.032
2.217	-0.033
2.218	-0.034
2.219	-0.034
2.22	-0.034
2.221	-0.034
2.222	-0.034
2.223	-0.034
2.224	-0.034
2.225	-0.033
2.226	-0.033
2.227	-0.033
2.228	-0.033
2.229	-0.033
2.23	-0.034
2.231	-0.034
2.232	-0.034
2.233	-0.034
2.234	-0.034
2.235	-0.034
2.236	-0.034
2.237	-0.034
2.238	-0.033
2.239	-0.033
2.24	-0.033
2.241	-0.033
2.242	-0.032
2.243	-0.032
2.244	-0.032
2.245	-0.031
2.246	-0.031
2.247	-0.031
2.248	-0.031
2.249	-0.031
2.25	-0.031
2.251	-0.031
2.252	-0.031
2.253	-0.031
2.254	-0.031
2.255	-0.031
2.256	-0.031
2.257	-0.031
2.258	-0.031
2.259	-0.031
2.26	-0.031
2.261	-0.031
2.262	-0.03
2.263	-0.03
2.264	-0.03
2.265	-0.03
2.266	-0.029
2.267	-0.029
2.268	-0.029
2.269	-0.029
2.27	-0.028
2.271	-0.028
2.272	-0.028
2.273	-0.028
2.274	-0.029
2.275	-0.029
2.276	-0.029
2.277	-0.029
2.278	-0.029
2.279	-0.029
2.28	-0.029
2.281	-0.029
2.282	-0.029
2.283	-0.029
2.284	-0.029
2.285	-0.028
2.286	-0.028
2.287	-0.027
2.288	-0.027
2.289	-0.026
2.29	-0.025
2.291	-0.025
2.292	-0.025
2.293	-0.025
2.294	-0.025
2.295	-0.026
2.296	-0.028
2.297	-0.03
2.298	-0.033
2.299	-0.037
2.3	-0.041
2.301	-0.047
2.302	-0.054
2.303	-0.061
2.304	-0.068
2.305	-0.076
2.306	-0.084
2.307	-0.092
2.308	-0.098
2.309	-0.103
2.31	-0.107
2.311	-0.109
2.312	-0.108
2.313	-0.103
2.314	-0.095
2.315	-0.084
2.316	-0.068
2.317	-0.048
2.318	-0.023
2.319	0.005
2.32	0.038
2.321	0.074
2.322	0.114
2.323	0.156
2.324	0.2
2.325	0.245
2.326	0.29
2.327	0.335
2.328	0.378
2.329	0.418
2.33	0.455
2.331	0.488
2.332	0.516
2.333	0.539
2.334	0.555
2.335	0.565
2.336	0.569
2.337	0.568
2.338	0.559
2.339	0.545
2.34	0.525
2.341	0.5
2.342	0.472
2.343	0.439
2.344	0.403
2.345	0.365
2.346	0.325
2.347	0.285
2.348	0.244
2.349	0.204
2.35	0.165
2.351	0.127
2.352	0.091
2.353	0.057
2.354	0.027
2.355	-0.001
2.356	-0.026
2.357	-0.047
2.358	-0.065
2.359	-0.08
2.36	-0.091
2.361	-0.1
2.362	-0.106
2.363	-0.109
2.364	-0.11
2.365	-0.108
2.366	-0.105
2.367	-0.101
2.368	-0.095
2.369	-0.089
2.37	-0.083
2.371	-0.076
2.372	-0.07
2.373	-0.065
2.374	-0.06
2.375	-0.055
2.376	-0.052
2.377	-0.05
2.378	-0.048
2.379	-0.047
2.38	-0.047
2.381	-0.048
2.382	-0.049
2.383	-0.05
2.384	-0.051
2.385	-0.052
2.386	-0.053
2.387	-0.054
2.388	-0.054
2.389	-0.055
2.39	-0.054
2.391	-0.054
2.392	-0.053
2.393	-0.052
2.394	-0.051
2.395	-0.05
2.396	-0.049
2.397	-0.049
2.398	-0.048
2.399	-0.047
2.4	-0.047
2.401	-0.047
2.402	-0.047
2.403	-0.048
2.404	-0.048
2.405	-0.048
2.406	-0.049
2.407	-0.049
2.408	-0.049
2.409	-0.05
2.41	-0.05
2.411	-0.049
2.412	-0.049
2.413	-0.049
2.414	-0.048
2.415	-0.048
2.416	-0.047
2.417	-0.046
2.418	-0.046
2.419	-0.045
2.42	-0.045
2.421	-0.045
2.422	-0.045
2.423	-0.045
2.424	-0.045
2.425	-0.045
2.426	-0.045
2.427	-0.045
2.428	-0.045
2.429	-0.045
2.43	-0.046
2.431	-0.045
2.432	-0.045
2.433	-0.045
2.434	-0.045
2.435	-0.044
2.436	-0.044
2.437	-0.044
2.438	-0.043
2.439	-0.043
2.44	-0.043
2.441	-0.043
2.442	-0.042
2.443	-0.042
2.444	-0.042
2.445	-0.042
2.446	-0.042
2.447	-0.042
2.448	-0.042
2.449	-0.043
2.45	-0.043
2.451	-0.042
2.452	-0.042
2.453	-0.042
2.454	-0.042
2.455	-0.042
2.456	-0.042
2.457	-0.041
2.458	-0.041
2.459	-0.041
2.46	-0.04
2.461	-0.04
2.462	-0.04
2.463	-0.04
2.464	-0.04
2.465	-0.04
2.466	-0.04
2.467	-0.039
2.468	-0.039
2.469	-0.039
2.47	-0.039
2.471	-0.039
2.472	-0.039
2.473	-0.039
2.474	-0.039
2.475	-0.039
2.476	-0.039
2.477	-0.039
2.478	-0.038
2.479	-0.038
2.48	-0.038
2.481	-0.038
2.482	-0.037
2.483	-0.037
2.484	-0.037
2.485	-0.037
2.486	-0.037
2.487	-0.037
2.488	-0.036
2.489	-0.036
2.49	-0.036
2.491	-0.036
2.492	-0.036
2.493	-0.036
2.494	-0.036
2.495	-0.036
2.496	-0.035
2.497	-0.035
2.498	-0.034
2.499	-0.033
2.5	-0.032
2.501	-0.031
2.502	-0.029
2.503	-0.027
2.504	-0.024
2.505	-0.021
2.506	-0.018
2.507	-0.015
2.508	-0.011
2.509	-0.007
2.51	-0.003
2.511	0.001
2.512	0.006
2.513	0.01
2.514	0.015
2.515	0.02
2.516	0.024
2.517	0.029
2.518	0.034
2.519	0.038
2.52	0.042
2.521	0.046
2.522	0.051
2.523	0.055
2.524	0.059
2.525	0.062
2.526	0.066
2.527	0.07
2.528	0.074
2.529	0.078
2.53	0.082
2.531	0.085
2.532	0.089
2.533	0.093
2.534	0.097
2.535	0.101
2.536	0.105
2.537	0.11
2.538	0.114
2.539	0.117
2.54	0.121
2.541	0.125
2.542	0.129
2.543	0.132
2.544	0.135
2.545	0.139
2.546	0.141
2.547	0.144
2.548	0.147
2.549	0.149
2.55	0.152
2.551	0.154
2.552	0.155
2.553	0.157
2.554	0.159
2.555	0.161
2.556	0.162
2.557	0.163
2.558	0.165
2.559	0.166
2.56	0.167
2.561	0.169
2.562	0.17
2.563	0.171
2.564	0.173
2.565	0.174
2.566	0.175
2.567	0.177
2.568	0.178
2.569	0.179
2.57	0.18
2.571	0.181
2.572	0.182
2.573	0.183
2.574	0.183
2.575	0.184
2.576	0.184
2.577	0.184
2.578	0.184
2.579	0.184
2.58	0.184
2.581	0.184
2.582	0.184
2.583	0.184
2.584	0.183
2.585	0.183
2.586	0.182
2.587	0.181
2.588	0.18
2.589	0.179
2.59	0.178
2.591	0.177
2.592	0.176
2.593	0.174
2.594	0.172
2.595	0.17
2.596	0.167
2.597	0.165
2.598	0.162
2.599	0.159
2.6	0.155
2.601	0.152
2.602	0.148
2.603	0.145
2.604	0.141
2.605	0.137
2.606	0.133
2.607	0.129
2.608	0.125
2.609	0.121
2.61	0.117
2.611	0.113
2.612	0.109
2.613	0.104
2.614	0.1
2.615	0.095
2.616	0.091
2.617	0.086
2.618	0.081
2.619	0.076
2.62	0.071
2.621	0.065
2.622	0.06
2.623	0.054
2.624	0.049
2.625	0.043
2.626	0.038
2.627	0.032
2.628	0.026
2.629	0.021
2.63	0.015
2.631	0.01
2.632	0.005
2.633	-0.001
2.634	-0.006
2.635	-0.011
2.636	-0.016
2.637	-0.021
2.638	-0.026
2.639	-0.031
2.64	-0.035
2.641	-0.04
2.642	-0.044
2.643	-0.048
2.644	-0.052
2.645	-0.056
2.646	-0.059
2.647	-0.062
2.648	-0.065
2.649	-0.068
2.65	-0.07
2.651	-0.071
2.652	-0.073
2.653	-0.074
2.654	-0.075
2.655	-0.075
2.656	-0.076
2.657	-0.076
2.658	-0.076
2.659	-0.076
2.66	-0.076
2.661	-0.075
2.662	-0.075
2.663	-0.075
2.664	-0.074
2.665	-0.074
2.666	-0.074
2.667	-0.074
2.668	-0.073
2.669	-0.073
2.67	-0.073
2.671	-0.073
2.672	-0.073
2.673	-0.073
2.674	-0.072
2.675	-0.072
2.676	-0.072
2.677	-0.072
2.678	-0.071
2.679	-0.071
2.68	-0.071
2.681	-0.071
2.682	-0.07
2.683	-0.07
2.684	-0.07
2.685	-0.07
2.686	-0.069
2.687	-0.069
2.688	-0.069
2.689	-0.069
2.69	-0.068
2.691	-0.068
2.692	-0.068
2.693	-0.068
2.694	-0.068
2.695	-0.068
2.696	-0.067
2.697	-0.067
2.698	-0.067
2.699	-0.067
2.7	-0.067
2.701	-0.066
2.702	-0.066
2.703	-0.066
2.704	-0.066
2.705	-0.065
2.706	-0.065
2.707	-0.065
2.708	-0.065
2.709	-0.064
2.71	-0.064
2.711	-0.064
2.712	-0.064
2.713	-0.063
2.714	-0.063
2.715	-0.063
2.716	-0.063
2.717	-0.063
2.718	-0.062
2.719	-0.062
2.72	-0.062
2.721	-0.062
2.722	-0.062
2.723	-0.061
2.724	-0.061
2.725	-0.061
2.726	-0.061
2.727	-0.061
2.728	-0.06
2.729	-0.06
2.73	-0.06
2.731	-0.06
2.732	-0.06
2.733	-0.06
2.734	-0.059
2.735	-0.059
2.736	-0.059
2.737	-0.059
2.738	-0.059
2.739	-0.059
2.74	-0.058
2.741	-0.058
2.742	-0.058
2.743	-0.058
2.744	-0.058
2.745	-0.057
2.746	-0.057
2.747	-0.057
2.748	-0.057
2.749	-0.057
2.75	-0.056
2.751	-0.056
2.752	-0.056
2.753	-0.056
2.754	-0.056
2.755	-0.055
2.756	-0.055
2.757	-0.055
2.758	-0.055
2.759	-0.055
2.76	-0.055
2.761	-0.054
2.762	-0.054
2.763	-0.054
2.764	-0.054
2.765	-0.054
2.766	-0.054
2.767	-0.053
2.768	-0.053
2.769	-0.053
2.77	-0.053
2.771	-0.053
2.772	-0.052
2.773	-0.052
2.774	-0.052
2.775	-0.052
2.776	-0.051
2.777	-0.051
2.778	-0.051
2.779	-0.051
2.78	-0.051
2.781	-0.051
2.782	-0.051
2.783	-0.05
2.784	-0.05
2.785	-0.05
2.786	-0.05
2.787	-0.05
2.788	-0.05
2.789	-0.05
2.79	-0.049
2.791	-0.049
2.792	-0.049
2.793	-0.049
2.794	-0.048
2.795	-0.048
2.796	-0.048
2.797	-0.048
2.798	-0.048
2.799	-0.047
2.8	-0.047
2.801	-0.047
2.802	-0.047
2.803	-0.047
2.804	-0.047
2.805	-0.047
2.806	-0.047
2.807	-0.047
2.808	-0.047
2.809	-0.046
2.81	-0.046
2.811	-0.046
2.812	-0.046
2.813	-0.046
2.814	-0.045
2.815	-0.045
2.816	-0.045
2.817	-0.045
2.818	-0.045
2.819	-0.045
2.82	-0.044
2.821	-0.044
2.822	-0.044
2.823	-0.044
2.824	-0.044
2.825	-0.044
2.826	-0.044
2.827	-0.044
2.828	-0.044
2.829	-0.044
2.83	-0.044
2.831	-0.043
2.832	-0.043
2.833	-0.043
2.834	-0.043
2.835	-0.042
2.836	-0.042
2.837	-0.042
2.838	-0.041
2.839	-0.041
2.84	-0.041
2.841	-0.041
2.842	-0.041
2.843	-0.041
2.844	-0.041
2.845	-0.041
2.846	-0.041
2.847	-0.041
2.848	-0.041
2.849	-0.041
2.85	-0.041
2.851	-0.041
2.852	-0.041
2.853	-0.041
2.854	-0.04
2.855	-0.04
2.856	-0.039
2.857	-0.039
2.858	-0.039
2.859	-0.038
2.86	-0.038
2.861	-0.038
2.862	-0.038
2.863	-0.038
2.864	-0.038
2.865	-0.038
2.866	-0.038
2.867	-0.038
2.868	-0.038
2.869	-0.037
2.87	-0.036
2.871	-0.035
2.872	-0.033
2.873	-0.031
2.874	-0.028
2.875	-0.024
2.876	-0.02
2.877	-0.015
2.878	-0.01
2.879	-0.005
2.88	0.001
2.881	0.007
2.882	0.012
2.883	0.018
2.884	0.024
2.885	0.029
2.886	0.034
2.887	0.038
2.888	0.042
2.889	0.046
2.89	0.05
2.891	0.053
2.892	0.056
2.893	0.058
2.894	0.061
2.895	0.063
2.896	0.066
2.897	0.069
2.898	0.071
2.899	0.074
2.9	0.076
2.901	0.079
2.902	0.082
2.903	0.084
2.904	0.086
2.905	0.088
2.906	0.09
2.907	0.091
2.908	0.092
2.909	0.092
2.91	0.091
2.911	0.09
2.912	0.089
2.913	0.087
2.914	0.085
2.915	0.082
2.916	0.078
2.917	0.075
2.918	0.071
2.919	0.067
2.92	0.063
2.921	0.059
2.922	0.055
2.923	0.051
2.924	0.047
2.925	0.042
2.926	0.038
2.927	0.034
2.928	0.029
2.929	0.024
2.93	0.019
2.931	0.015
2.932	0.01
2.933	0.004
2.934	-0.001
2.935	-0.006
2.936	-0.01
2.937	-0.015
2.938	-0.02
2.939	-0.024
2.94	-0.028
2.941	-0.031
2.942	-0.034
2.943	-0.037
2.944	-0.039
2.945	-0.04
2.946	-0.042
2.947	-0.043
2.948	-0.043
2.949	-0.044
2.95	-0.044
2.951	-0.044
2.952	-0.044
2.953	-0.043
2.954	-0.043
2.955	-0.043
2.956	-0.043
2.957	-0.043
2.958	-0.043
2.959	-0.043
2.96	-0.043
2.961	-0.043
2.962	-0.043
2.963	-0.043
2.964	-0.043
2.965	-0.043
2.966	-0.043
2.967	-0.043
2.968	-0.043
2.969	-0.042
2.97	-0.042
2.971	-0.042
2.972	-0.041
2.973	-0.041
2.974	-0.041
2.975	-0.04
2.976	-0.04
2.977	-0.04
2.978	-0.04
2.979	-0.04
2.98	-0.04
2.981	-0.04
2.982	-0.04
2.983	-0.04
2.984	-0.04
2.985	-0.04
2.986	-0.04
2.987	-0.04
2.988	-0.04
2.989	-0.04
2.99	-0.04
2.991	-0.04
2.992	-0.039
2.993	-0.039
2.994	-0.039
2.995	-0.038
2.996	-0.038
2.997	-0.038
2.998	-0.037
2.999	-0.037
3	-0.037
3.001	-0.037
3.002	-0.037
3.003	-0.037
3.004	-0.037
3.005	-0.037
3.006	-0.037
3.007	-0.037
3.008	-0.038
3.009	-0.038
3.01	-0.038
3.011	-0.038
3.012	-0.037
3.013	-0.037
3.014	-0.037
3.015	-0.037
3.016	-0.036
3.017	-0.035
3.018	-0.035
3.019	-0.034
3.02	-0.034
3.021	-0.033
3.022	-0.033
3.023	-0.033
3.024	-0.033
3.025	-0.034
3.026	-0.035
3.027	-0.037
3.028	-0.04
3.029	-0.044
3.03	-0.048
3.031	-0.054
3.032	-0.06
3.033	-0.067
3.034	-0.074
3.035	-0.082
3.036	-0.09
3.037	-0.097
3.038	-0.104
3.039	-0.11
3.04	-0.114
3.041	-0.116
3.042	-0.116
3.043	-0.112
3.044	-0.105
3.045	-0.095
3.046	-0.08
3.047	-0.061
3.048	-0.038
3.049	-0.01
3.05	0.021
3.051	0.057
3.052	0.096
3.053	0.137
3.054	0.181
3.055	0.226
3.056	0.271
3.057	0.316
3.058	0.36
3.059	0.401
3.06	0.439
3.061	0.473
3.062	0.502
3.063	0.526
3.064	0.544
3.065	0.556
3.066	0.562
3.067	0.562
3.068	0.556
3.069	0.543
3.07	0.524
3.071	0.501
3.072	0.474
3.073	0.442
3.074	0.407
3.075	0.369
3.076	0.33
3.077	0.289
3.078	0.249
3.079	0.208
3.08	0.168
3.081	0.13
3.082	0.094
3.083	0.059
3.084	0.028
3.085	0
3.086	-0.026
3.087	-0.048
3.088	-0.067
3.089	-0.083
3.09	-0.095
3.091	-0.104
3.092	-0.111
3.093	-0.115
3.094	-0.116
3.095	-0.115
3.096	-0.112
3.097	-0.108
3.098	-0.103
3.099	-0.097
3.1	-0.09
3.101	-0.084
3.102	-0.078
3.103	-0.072
3.104	-0.067
3.105	-0.063
3.106	-0.059
3.107	-0.056
3.108	-0.055
3.109	-0.054
3.11	-0.053
3.111	-0.054
3.112	-0.055
3.113	-0.056
3.114	-0.057
3.115	-0.058
3.116	-0.059
3.117	-0.06
3.118	-0.06
3.119	-0.06
3.12	-0.06
3.121	-0.06
3.122	-0.059
3.123	-0.058
3.124	-0.057
3.125	-0.056
3.126	-0.055
3.127	-0.054
3.128	-0.054
3.129	-0.053
3.13	-0.053
3.131	-0.053
3.132	-0.053
3.133	-0.053
3.134	-0.053
3.135	-0.054
3.136	-0.054
3.137	-0.055
3.138	-0.055
3.139	-0.055
3.14	-0.055
3.141	-0.055
3.142	-0.055
3.143	-0.054
3.144	-0.054
3.145	-0.053
3.146	-0.052
3.147	-0.052
3.148	-0.051
3.149	-0.051
3.15	-0.05
3.151	-0.05
3.152	-0.05
3.153	-0.05
3.154	-0.05
3.155	-0.05
3.156	-0.05
3.157	-0.05
3.158	-0.051
3.159	-0.051
3.16	-0.051
3.161	-0.051
3.162	-0.051
3.163	-0.05
3.164	-0.05
3.165	-0.05
3.166	-0.049
3.167	-0.049
3.168	-0.049
3.169	-0.048
3.17	-0.048
3.171	-0.048
3.172	-0.047
3.173	-0.047
3.174	-0.047
3.175	-0.047
3.176	-0.047
3.177	-0.047
3.178	-0.047
3.179	-0.047
3.18	-0.047
3.181	-0.047
3.182	-0.047
3.183	-0.047
3.184	-0.047
3.185	-0.047
3.186	-0.046
3.187	-0.046
3.188	-0.046
3.189	-0.046
3.19	-0.045
3.191	-0.045
3.192	-0.045
3.193	-0.044
3.194	-0.044
3.195	-0.044
3.196	-0.044
3.197	-0.044
3.198	-0.044
3.199	-0.044
3.2	-0.044
3.201	-0.044
3.202	-0.044
3.203	-0.044
3.204	-0.044
3.205	-0.043
3.206	-0.043
3.207	-0.043
3.208	-0.043
3.209	-0.043
3.21	-0.042
3.211	-0.042
3.212	-0.042
3.213	-0.042
3.214	-0.042
3.215	-0.041
3.216	-0.041
3.217	-0.041
3.218	-0.041
3.219	-0.041
3.22	-0.041
3.221	-0.041
3.222	-0.041
3.223	-0.04
3.224	-0.04
3.225	-0.04
3.226	-0.04
3.227	-0.039
3.228	-0.038
3.229	-0.038
3.23	-0.036
3.231	-0.035
3.232	-0.033
3.233	-0.031
3.234	-0.029
3.235	-0.026
3.236	-0.023
3.237	-0.02
3.238	-0.016
3.239	-0.012
3.24	-0.008
3.241	-0.004
3.242	0.001
3.243	0.005
3.244	0.01
3.245	0.015
3.246	0.019
3.247	0.024
3.248	0.029
3.249	0.033
3.25	0.037
3.251	0.042
3.252	0.046
3.253	0.05
3.254	0.054
3.255	0.058
3.256	0.062
3.257	0.065
3.258	0.069
3.259	0.073
3.26	0.077
3.261	0.081
3.262	0.085
3.263	0.089
3.264	0.093
3.265	0.097
3.266	0.101
3.267	0.105
3.268	0.109
3.269	0.113
3.27	0.117
3.271	0.12
3.272	0.124
3.273	0.127
3.274	0.131
3.275	0.134
3.276	0.137
3.277	0.14
3.278	0.142
3.279	0.145
3.28	0.147
3.281	0.149
3.282	0.151
3.283	0.153
3.284	0.155
3.285	0.156
3.286	0.158
3.287	0.159
3.288	0.161
3.289	0.162
3.29	0.164
3.291	0.165
3.292	0.166
3.293	0.168
3.294	0.169
3.295	0.17
3.296	0.171
3.297	0.173
3.298	0.174
3.299	0.175
3.3	0.176
3.301	0.177
3.302	0.178
3.303	0.179
3.304	0.179
3.305	0.18
3.306	0.18
3.307	0.181
3.308	0.181
3.309	0.181
3.31	0.181
3.311	0.181
3.312	0.181
3.313	0.18
3.314	0.18
3.315	0.18
3.316	0.179
3.317	0.178
3.318	0.178
3.319	0.177
3.32	0.176
3.321	0.174
3.322	0.173
3.323	0.171
3.324	0.17
3.325	0.167
3.326	0.165
3.327	0.163
3.328	0.16
3.329	0.157
3.33	0.154
3.331	0.15
3.332	0.147
3.333	0.143
3.334	0.139
3.335	0.135
3.336	0.131
3.337	0.127
3.338	0.123
3.339	0.119
3.34	0.115
3.341	0.111
3.342	0.106
3.343	0.102
3.344	0.098
3.345	0.093
3.346	0.089
3.347	0.084
3.348	0.079
3.349	0.074
3.35	0.069
3.351	0.064
3.352	0.059
3.353	0.053
3.354	0.048
3.355	0.042
3.356	0.036
3.357	0.031
3.358	0.025
3.359	0.019
3.36	0.014
3.361	0.008
3.362	0.003
3.363	-0.003
3.364	-0.008
3.365	-0.013
3.366	-0.018
3.367	-0.023
3.368	-0.028
3.369	-0.032
3.37	-0.037
3.371	-0.041
3.372	-0.046
3.373	-0.05
3.374	-0.054
3.375	-0.057
3.376	-0.061
3.377	-0.064
3.378	-0.067
3.379	-0.07
3.38	-0.072
3.381	-0.074
3.382	-0.075
3.383	-0.076
3.384	-0.077
3.385	-0.078
3.386	-0.078
3.387	-0.078
3.388	-0.078
3.389	-0.078
3.39	-0.078
3.391	-0.078
3.392	-0.077
3.393	-0.077
3.394	-0.077
3.395	-0.077
3.396	-0.077
3.397	-0.077
3.398	-0.076
3.399	-0.076
3.4	-0.076
3.401	-0.076
3.402	-0.076
3.403	-0.075
3.404	-0.075
3.405	-0.074
3.406	-0.074
3.407	-0.073
3.408	-0.073
3.409	-0.073
3.41	-0.072
3.411	-0.072
3.412	-0.072
3.413	-0.072
3.414	-0.072
3.415	-0.072
3.416	-0.072
3.417	-0.072
3.418	-0.071
3.419	-0.071
3.42	-0.07
3.421	-0.068
3.422	-0.067
3.423	-0.064
3.424	-0.061
3.425	-0.058
3.426	-0.054
3.427	-0.049
3.428	-0.044
3.429	-0.038
3.43	-0.033
3.431	-0.027
3.432	-0.021
3.433	-0.015
3.434	-0.009
3.435	-0.004
3.436	0.001
3.437	0.006
3.438	0.01
3.439	0.014
3.44	0.018
3.441	0.021
3.442	0.024
3.443	0.027
3.444	0.03
3.445	0.032
3.446	0.035
3.447	0.037
3.448	0.04
3.449	0.043
3.45	0.046
3.451	0.048
3.452	0.051
3.453	0.054
3.454	0.056
3.455	0.058
3.456	0.06
3.457	0.061
3.458	0.062
3.459	0.063
3.46	0.062
3.461	0.062
3.462	0.06
3.463	0.059
3.464	0.056
3.465	0.054
3.466	0.051
3.467	0.047
3.468	0.044
3.469	0.04
3.47	0.036
3.471	0.032
3.472	0.028
3.473	0.024
3.474	0.02
3.475	0.016
3.476	0.011
3.477	0.007
3.478	0.003
3.479	-0.002
3.48	-0.007
3.481	-0.012
3.482	-0.017
3.483	-0.022
3.484	-0.027
3.485	-0.032
3.486	-0.037
3.487	-0.041
3.488	-0.046
3.489	-0.05
3.49	-0.054
3.491	-0.057
3.492	-0.06
3.493	-0.063
3.494	-0.065
3.495	-0.066
3.496	-0.067
3.497	-0.068
3.498	-0.069
3.499	-0.069
3.5	-0.069
3.501	-0.069
3.502	-0.069
3.503	-0.069
3.504	-0.069
3.505	-0.068
3.506	-0.068
3.507	-0.068
3.508	-0.068
3.509	-0.068
3.51	-0.068
3.511	-0.068
3.512	-0.068
3.513	-0.068
3.514	-0.068
3.515	-0.068
3.516	-0.068
3.517	-0.068
3.518	-0.067
3.519	-0.067
3.52	-0.066
3.521	-0.066
3.522	-0.065
3.523	-0.065
3.524	-0.064
3.525	-0.064
3.526	-0.064
3.527	-0.063
3.528	-0.063
3.529	-0.063
3.53	-0.063
3.531	-0.063
3.532	-0.063
3.533	-0.063
3.534	-0.063
3.535	-0.063
3.536	-0.063
3.537	-0.063
3.538	-0.063
3.539	-0.062
3.54	-0.062
3.541	-0.062
3.542	-0.062
3.543	-0.061
3.544	-0.061
3.545	-0.061
3.546	-0.06
3.547	-0.06
3.548	-0.06
3.549	-0.059
3.55	-0.059
3.551	-0.059
3.552	-0.059
3.553	-0.059
3.554	-0.058
3.555	-0.058
3.556	-0.059
3.557	-0.059
3.558	-0.059
3.559	-0.059
3.56	-0.059
3.561	-0.059
3.562	-0.058
3.563	-0.058
3.564	-0.058
3.565	-0.058
3.566	-0.057
3.567	-0.056
3.568	-0.056
3.569	-0.055
3.57	-0.054
3.571	-0.054
3.572	-0.053
3.573	-0.053
3.574	-0.053
3.575	-0.054
3.576	-0.055
3.577	-0.057
3.578	-0.059
3.579	-0.063
3.58	-0.067
3.581	-0.072
3.582	-0.078
3.583	-0.085
3.584	-0.092
3.585	-0.1
3.586	-0.107
3.587	-0.115
3.588	-0.122
3.589	-0.128
3.59	-0.132
3.591	-0.135
3.592	-0.135
3.593	-0.132
3.594	-0.126
3.595	-0.116
3.596	-0.102
3.597	-0.084
3.598	-0.062
3.599	-0.035
3.6	-0.004
3.601	0.031
3.602	0.069
3.603	0.11
3.604	0.153
3.605	0.198
3.606	0.243
3.607	0.288
3.608	0.332
3.609	0.374
3.61	0.413
3.611	0.448
3.612	0.479
3.613	0.504
3.614	0.523
3.615	0.537
3.616	0.544
3.617	0.545
3.618	0.54
3.619	0.529
3.62	0.511
3.621	0.489
3.622	0.463
3.623	0.432
3.624	0.397
3.625	0.36
3.626	0.321
3.627	0.281
3.628	0.24
3.629	0.2
3.63	0.16
3.631	0.121
3.632	0.085
3.633	0.05
3.634	0.018
3.635	-0.011
3.636	-0.037
3.637	-0.06
3.638	-0.08
3.639	-0.096
3.64	-0.109
3.641	-0.119
3.642	-0.126
3.643	-0.13
3.644	-0.132
3.645	-0.131
3.646	-0.129
3.647	-0.125
3.648	-0.12
3.649	-0.114
3.65	-0.108
3.651	-0.101
3.652	-0.095
3.653	-0.089
3.654	-0.084
3.655	-0.079
3.656	-0.075
3.657	-0.072
3.658	-0.07
3.659	-0.069
3.66	-0.069
3.661	-0.069
3.662	-0.07
3.663	-0.07
3.664	-0.072
3.665	-0.073
3.666	-0.074
3.667	-0.075
3.668	-0.075
3.669	-0.076
3.67	-0.076
3.671	-0.075
3.672	-0.075
3.673	-0.074
3.674	-0.073
3.675	-0.072
3.676	-0.07
3.677	-0.069
3.678	-0.069
3.679	-0.068
3.68	-0.067
3.681	-0.067
3.682	-0.067
3.683	-0.067
3.684	-0.067
3.685	-0.068
3.686	-0.068
3.687	-0.068
3.688	-0.069
3.689	-0.069
3.69	-0.069
3.691	-0.069
3.692	-0.068
3.693	-0.068
3.694	-0.068
3.695	-0.067
3.696	-0.066
3.697	-0.066
3.698	-0.065
3.699	-0.065
3.7	-0.064
3.701	-0.064
3.702	-0.064
3.703	-0.063
3.704	-0.063
3.705	-0.063
3.706	-0.064
3.707	-0.064
3.708	-0.064
3.709	-0.064
3.71	-0.064
3.711	-0.064
3.712	-0.063
3.713	-0.063
3.714	-0.063
3.715	-0.063
3.716	-0.062
3.717	-0.062
3.718	-0.061
3.719	-0.061
3.72	-0.061
3.721	-0.06
3.722	-0.06
3.723	-0.06
3.724	-0.06
3.725	-0.06
3.726	-0.059
3.727	-0.059
3.728	-0.059
3.729	-0.059
3.73	-0.059
3.731	-0.059
3.732	-0.059
3.733	-0.059
3.734	-0.059
3.735	-0.058
3.736	-0.058
3.737	-0.058
3.738	-0.058
3.739	-0.057
3.74	-0.057
3.741	-0.057
3.742	-0.056
3.743	-0.056
3.744	-0.056
3.745	-0.056
3.746	-0.055
3.747	-0.055
3.748	-0.055
3.749	-0.055
3.75	-0.055
3.751	-0.055
3.752	-0.055
3.753	-0.055
3.754	-0.055
3.755	-0.055
3.756	-0.055
3.757	-0.054
3.758	-0.054
3.759	-0.054
3.76	-0.054
3.761	-0.054
3.762	-0.053
3.763	-0.053
3.764	-0.053
3.765	-0.053
3.766	-0.052
3.767	-0.052
3.768	-0.052
3.769	-0.052
3.77	-0.052
3.771	-0.051
3.772	-0.051
3.773	-0.051
3.774	-0.051
3.775	-0.051
3.776	-0.05
3.777	-0.05
3.778	-0.049
3.779	-0.048
3.78	-0.047
3.781	-0.046
3.782	-0.044
3.783	-0.042
3.784	-0.04
3.785	-0.037
3.786	-0.035
3.787	-0.031
3.788	-0.028
3.789	-0.024
3.79	-0.019
3.791	-0.015
3.792	-0.011
3.793	-0.006
3.794	-0.001
3.795	0.004
3.796	0.008
3.797	0.013
3.798	0.018
3.799	0.022
3.8	0.027
3.801	0.031
3.802	0.035
3.803	0.039
3.804	0.043
3.805	0.047
3.806	0.051
3.807	0.055
3.808	0.058
3.809	0.062
3.81	0.066
3.811	0.07
3.812	0.074
3.813	0.078
3.814	0.082
3.815	0.086
3.816	0.09
3.817	0.095
3.818	0.099
3.819	0.103
3.82	0.107
3.821	0.11
3.822	0.114
3.823	0.118
3.824	0.121
3.825	0.124
3.826	0.127
3.827	0.13
3.828	0.133
3.829	0.135
3.83	0.138
3.831	0.14
3.832	0.142
3.833	0.144
3.834	0.145
3.835	0.147
3.836	0.149
3.837	0.15
3.838	0.152
3.839	0.153
3.84	0.154
3.841	0.156
3.842	0.157
3.843	0.159
3.844	0.16
3.845	0.161
3.846	0.163
3.847	0.164
3.848	0.165
3.849	0.166
3.85	0.168
3.851	0.169
3.852	0.17
3.853	0.17
3.854	0.171
3.855	0.172
3.856	0.172
3.857	0.173
3.858	0.173
3.859	0.173
3.86	0.173
3.861	0.173
3.862	0.173
3.863	0.173
3.864	0.172
3.865	0.172
3.866	0.171
3.867	0.171
3.868	0.17
3.869	0.169
3.87	0.168
3.871	0.167
3.872	0.166
3.873	0.164
3.874	0.162
3.875	0.16
3.876	0.158
3.877	0.155
3.878	0.153
3.879	0.15
3.88	0.147
3.881	0.143
3.882	0.14
3.883	0.136
3.884	0.132
3.885	0.128
3.886	0.125
3.887	0.121
3.888	0.116
3.889	0.112
3.89	0.108
3.891	0.104
3.892	0.1
3.893	0.096
3.894	0.091
3.895	0.087
3.896	0.083
3.897	0.078
3.898	0.073
3.899	0.068
3.9	0.063
3.901	0.058
3.902	0.053
3.903	0.047
3.904	0.042
3.905	0.036
3.906	0.031
3.907	0.025
3.908	0.02
3.909	0.014
3.91	0.008
3.911	0.003
3.912	-0.002
3.913	-0.008
3.914	-0.013
3.915	-0.018
3.916	-0.023
3.917	-0.028
3.918	-0.033
3.919	-0.038
3.92	-0.043
3.921	-0.047
3.922	-0.051
3.923	-0.056
3.924	-0.059
3.925	-0.063
3.926	-0.066
3.927	-0.07
3.928	-0.073
3.929	-0.075
3.93	-0.077
3.931	-0.079
3.932	-0.081
3.933	-0.082
3.934	-0.083
3.935	-0.084
3.936	-0.085
3.937	-0.085
3.938	-0.085
3.939	-0.085
3.94	-0.085
3.941	-0.085
3.942	-0.084
3.943	-0.084
3.944	-0.084
3.945	-0.083
3.946	-0.083
3.947	-0.082
3.948	-0.082
3.949	-0.082
3.95	-0.082
3.951	-0.081
3.952	-0.081
3.953	-0.081
3.954	-0.081
3.955	-0.08
3.956	-0.08
3.957	-0.08
3.958	-0.08
3.959	-0.08
3.96	-0.079
3.961	-0.079
3.962	-0.079
3.963	-0.078
3.964	-0.078
3.965	-0.078
3.966	-0.078
3.967	-0.077
3.968	-0.077
3.969	-0.077
3.97	-0.077
3.971	-0.076
3.972	-0.076
3.973	-0.076
3.974	-0.076
3.975	-0.075
3.976	-0.075
3.977	-0.075
3.978	-0.075
3.979	-0.075
3.98	-0.074
3.981	-0.074
3.982	-0.074
3.983	-0.074
3.984	-0.073
3.985	-0.073
3.986	-0.073
3.987	-0.073
3.988	-0.072
3.989	-0.072
3.99	-0.072
3.991	-0.072
3.992	-0.071
3.993	-0.071
3.994	-0.071
3.995	-0.071
3.996	-0.07
3.997	-0.07
3.998	-0.07
3.999	-0.07
4	-0.069
4.001	-0.069
4.002	-0.069
4.003	-0.068
4.004	-0.068
4.005	-0.068
4.006	-0.068
4.007	-0.068
4.008	-0.067
4.009	-0.067
4.01	-0.067
4.011	-0.067
4.012	-0.067
4.013	-0.067
4.014	-0.067
4.015	-0.066
4.016	-0.066
4.017	-0.066
4.018	-0.066
4.019	-0.066
4.02	-0.065
4.021	-0.065
4.022	-0.065
4.023	-0.065
4.024	-0.064
4.025	-0.064
4.026	-0.064
4.027	-0.063
4.028	-0.063
4.029	-0.063
4.03	-0.063
4.031	-0.063
4.032	-0.062
4.033	-0.062
4.034	-0.062
4.035	-0.062
4.036	-0.062
4.037	-0.062
4.038	-0.061
4.039	-0.061
4.04	-0.061
4.041	-0.061
4.042	-0.061
4.043	-0.06
4.044	-0.06
4.045	-0.06
4.046	-0.06
4.047	-0.059
4.048	-0.059
4.049	-0.059
4.05	-0.059
4.051	-0.059
4.052	-0.058
4.053	-0.058
4.054	-0.058
4.055	-0.058
4.056	-0.058
4.057	-0.058
4.058	-0.058
4.059	-0.057
4.06	-0.057
4.061	-0.057
4.062	-0.057
4.063	-0.057
4.064	-0.056
4.065	-0.056
4.066	-0.056
4.067	-0.056
4.068	-0.055
4.069	-0.055
4.07	-0.055
4.071	-0.055
4.072	-0.055
4.073	-0.055
4.074	-0.054
4.075	-0.054
4.076	-0.054
4.077	-0.054
4.078	-0.054
4.079	-0.054
4.08	-0.054
4.081	-0.054
4.082	-0.054
4.083	-0.053
4.084	-0.053
4.085	-0.053
4.086	-0.052
4.087	-0.052
4.088	-0.052
4.089	-0.052
4.09	-0.051
4.091	-0.051
4.092	-0.051
4.093	-0.051
4.094	-0.051
4.095	-0.051
4.096	-0.051
4.097	-0.051
4.098	-0.051
4.099	-0.051
4.1	-0.051
4.101	-0.051
4.102	-0.05
4.103	-0.05
4.104	-0.05
4.105	-0.049
4.106	-0.049
4.107	-0.048
4.108	-0.048
4.109	-0.048
4.11	-0.047
4.111	-0.047
4.112	-0.047
4.113	-0.047
4.114	-0.047
4.115	-0.048
4.116	-0.048
4.117	-0.048
4.118	-0.047
4.119	-0.047
4.12	-0.046
4.121	-0.045
4.122	-0.043
4.123	-0.041
4.124	-0.038
4.125	-0.035
4.126	-0.031
4.127	-0.026
4.128	-0.021
4.129	-0.016
4.13	-0.011
4.131	-0.005
4.132	0.001
4.133	0.007
4.134	0.012
4.135	0.018
4.136	0.023
4.137	0.027
4.138	0.032
4.139	0.036
4.14	0.039
4.141	0.043
4.142	0.046
4.143	0.049
4.144	0.051
4.145	0.054
4.146	0.056
4.147	0.059
4.148	0.062
4.149	0.064
4.15	0.067
4.151	0.07
4.152	0.072
4.153	0.075
4.154	0.077
4.155	0.079
4.156	0.081
4.157	0.082
4.158	0.083
4.159	0.084
4.16	0.084
4.161	0.083
4.162	0.082
4.163	0.08
4.164	0.078
4.165	0.075
4.166	0.072
4.167	0.069
4.168	0.065
4.169	0.062
4.17	0.058
4.171	0.054
4.172	0.05
4.173	0.046
4.174	0.042
4.175	0.037
4.176	0.033
4.177	0.029
4.178	0.024
4.179	0.019
4.18	0.015
4.181	0.01
4.182	0.005
4.183	0
4.184	-0.005
4.185	-0.01
4.186	-0.015
4.187	-0.02
4.188	-0.025
4.189	-0.029
4.19	-0.033
4.191	-0.037
4.192	-0.04
4.193	-0.043
4.194	-0.045
4.195	-0.047
4.196	-0.048
4.197	-0.049
4.198	-0.05
4.199	-0.05
4.2	-0.051
4.201	-0.051
4.202	-0.051
4.203	-0.05
4.204	-0.05
4.205	-0.05
4.206	-0.05
4.207	-0.05
4.208	-0.05
4.209	-0.05
4.21	-0.05
4.211	-0.05
4.212	-0.05
4.213	-0.05
4.214	-0.05
4.215	-0.05
4.216	-0.05
4.217	-0.05
4.218	-0.05
4.219	-0.049
4.22	-0.049
4.221	-0.049
4.222	-0.048
4.223	-0.048
4.224	-0.048
4.225	-0.047
4.226	-0.047
4.227	-0.047
4.228	-0.047
4.229	-0.046
4.23	-0.046
4.231	-0.046
4.232	-0.046
4.233	-0.046
4.234	-0.046
4.235	-0.046
4.236	-0.046
4.237	-0.046
4.238	-0.046
4.239	-0.046
4.24	-0.046
4.241	-0.046
4.242	-0.046
4.243	-0.045
4.244	-0.045
4.245	-0.045
4.246	-0.044
4.247	-0.044
4.248	-0.044
4.249	-0.043
4.25	-0.043
4.251	-0.043
4.252	-0.043
4.253	-0.043
4.254	-0.043
4.255	-0.043
4.256	-0.043
4.257	-0.043
4.258	-0.043
4.259	-0.043
4.26	-0.043
4.261	-0.043
4.262	-0.043
4.263	-0.043
4.264	-0.043
4.265	-0.043
4.266	-0.042
4.267	-0.042
4.268	-0.041
4.269	-0.04
4.27	-0.04
4.271	-0.039
4.272	-0.038
4.273	-0.038
4.274	-0.038
4.275	-0.039
4.276	-0.04
4.277	-0.042
4.278	-0.044
4.279	-0.047
4.28	-0.051
4.281	-0.056
4.282	-0.062
4.283	-0.068
4.284	-0.075
4.285	-0.083
4.286	-0.091
4.287	-0.099
4.288	-0.106
4.289	-0.112
4.29	-0.117
4.291	-0.12
4.292	-0.121
4.293	-0.119
4.294	-0.114
4.295	-0.105
4.296	-0.092
4.297	-0.076
4.298	-0.054
4.299	-0.029
4.3	0.001
4.301	0.034
4.302	0.072
4.303	0.112
4.304	0.154
4.305	0.199
4.306	0.244
4.307	0.289
4.308	0.333
4.309	0.375
4.31	0.415
4.311	0.451
4.312	0.483
4.313	0.509
4.314	0.53
4.315	0.545
4.316	0.554
4.317	0.557
4.318	0.554
4.319	0.544
4.32	0.528
4.321	0.507
4.322	0.482
4.323	0.452
4.324	0.418
4.325	0.382
4.326	0.344
4.327	0.304
4.328	0.264
4.329	0.223
4.33	0.183
4.331	0.144
4.332	0.107
4.333	0.072
4.334	0.039
4.335	0.009
4.336	-0.018
4.337	-0.042
4.338	-0.062
4.339	-0.079
4.34	-0.093
4.341	-0.104
4.342	-0.112
4.343	-0.117
4.344	-0.12
4.345	-0.12
4.346	-0.118
4.347	-0.115
4.348	-0.11
4.349	-0.104
4.35	-0.098
4.351	-0.092
4.352	-0.085
4.353	-0.08
4.354	-0.074
4.355	-0.069
4.356	-0.065
4.357	-0.062
4.358	-0.06
4.359	-0.058
4.36	-0.057
4.361	-0.057
4.362	-0.058
4.363	-0.059
4.364	-0.06
4.365	-0.061
4.366	-0.062
4.367	-0.063
4.368	-0.064
4.369	-0.064
4.37	-0.065
4.371	-0.064
4.372	-0.064
4.373	-0.063
4.374	-0.062
4.375	-0.061
4.376	-0.06
4.377	-0.059
4.378	-0.059
4.379	-0.058
4.38	-0.057
4.381	-0.057
4.382	-0.057
4.383	-0.057
4.384	-0.057
4.385	-0.058
4.386	-0.058
4.387	-0.058
4.388	-0.059
4.389	-0.059
4.39	-0.059
4.391	-0.059
4.392	-0.059
4.393	-0.058
4.394	-0.058
4.395	-0.057
4.396	-0.057
4.397	-0.056
4.398	-0.055
4.399	-0.055
4.4	-0.054
4.401	-0.054
4.402	-0.054
4.403	-0.054
4.404	-0.054
4.405	-0.054
4.406	-0.054
4.407	-0.054
4.408	-0.054
4.409	-0.054
4.41	-0.054
4.411	-0.054
4.412	-0.054
4.413	-0.054
4.414	-0.054
4.415	-0.053
4.416	-0.053
4.417	-0.053
4.418	-0.052
4.419	-0.052
4.42	-0.052
4.421	-0.051
4.422	-0.051
4.423	-0.051
4.424	-0.051
4.425	-0.051
4.426	-0.051
4.427	-0.051
4.428	-0.051
4.429	-0.051
4.43	-0.051
4.431	-0.051
4.432	-0.05
4.433	-0.05
4.434	-0.05
4.435	-0.05
4.436	-0.05
4.437	-0.05
4.438	-0.049
4.439	-0.049
4.44	-0.049
4.441	-0.048
4.442	-0.048
4.443	-0.048
4.444	-0.048
4.445	-0.047
4.446	-0.047
4.447	-0.047
4.448	-0.047
4.449	-0.047
4.45	-0.047
4.451	-0.047
4.452	-0.047
4.453	-0.047
4.454	-0.047
4.455	-0.047
4.456	-0.047
4.457	-0.046
4.458	-0.046
4.459	-0.046
4.46	-0.046
4.461	-0.046
4.462	-0.045
4.463	-0.045
4.464	-0.045
4.465	-0.045
4.466	-0.045
4.467	-0.044
4.468	-0.044
4.469	-0.044
4.47	-0.044
4.471	-0.044
4.472	-0.044
4.473	-0.044
4.474	-0.043
4.475	-0.043
4.476	-0.043
4.477	-0.043
4.478	-0.042
4.479	-0.041
4.48	-0.04
4.481	-0.039
4.482	-0.037
4.483	-0.035
4.484	-0.033
4.485	-0.031
4.486	-0.028
4.487	-0.025
4.488	-0.021
4.489	-0.017
4.49	-0.013
4.491	-0.009
4.492	-0.004
4.493	0
4.494	0.005
4.495	0.01
4.496	0.014
4.497	0.019
4.498	0.023
4.499	0.028
4.5	0.032
4.501	0.037
4.502	0.041
4.503	0.045
4.504	0.049
4.505	0.053
4.506	0.057
4.507	0.06
4.508	0.064
4.509	0.068
4.51	0.072
4.511	0.076
4.512	0.08
4.513	0.084
4.514	0.088
4.515	0.092
4.516	0.096
4.517	0.1
4.518	0.105
4.519	0.109
4.52	0.112
4.521	0.116
4.522	0.12
4.523	0.123
4.524	0.127
4.525	0.13
4.526	0.133
4.527	0.136
4.528	0.139
4.529	0.141
4.53	0.144
4.531	0.146
4.532	0.148
4.533	0.15
4.534	0.152
4.535	0.153
4.536	0.155
4.537	0.157
4.538	0.158
4.539	0.159
4.54	0.161
4.541	0.162
4.542	0.163
4.543	0.165
4.544	0.166
4.545	0.167
4.546	0.169
4.547	0.17
4.548	0.171
4.549	0.172
4.55	0.173
4.551	0.175
4.552	0.175
4.553	0.176
4.554	0.177
4.555	0.178
4.556	0.178
4.557	0.179
4.558	0.179
4.559	0.179
4.56	0.179
4.561	0.179
4.562	0.179
4.563	0.178
4.564	0.178
4.565	0.178
4.566	0.177
4.567	0.177
4.568	0.176
4.569	0.175
4.57	0.174
4.571	0.173
4.572	0.172
4.573	0.17
4.574	0.168
4.575	0.166
4.576	0.164
4.577	0.162
4.578	0.159
4.579	0.156
4.58	0.153
4.581	0.15
4.582	0.146
4.583	0.143
4.584	0.139
4.585	0.135
4.586	0.131
4.587	0.127
4.588	0.123
4.589	0.119
4.59	0.115
4.591	0.111
4.592	0.106
4.593	0.102
4.594	0.098
4.595	0.093
4.596	0.089
4.597	0.084
4.598	0.08
4.599	0.075
4.6	0.07
4.601	0.065
4.602	0.06
4.603	0.054
4.604	0.049
4.605	0.043
4.606	0.037
4.607	0.032
4.608	0.026
4.609	0.02
4.61	0.015
4.611	0.009
4.612	0.004
4.613	-0.002
4.614	-0.007
4.615	-0.012
4.616	-0.017
4.617	-0.022
4.618	-0.027
4.619	-0.032
4.62	-0.037
4.621	-0.041
4.622	-0.046
4.623	-0.05
4.624	-0.054
4.625	-0.057
4.626	-0.061
4.627	-0.064
4.628	-0.067
4.629	-0.07
4.63	-0.072
4.631	-0.074
4.632	-0.076
4.633	-0.077
4.634	-0.079
4.635	-0.079
4.636	-0.08
4.637	-0.08
4.638	-0.08
4.639	-0.08
4.64	-0.08
4.641	-0.08
4.642	-0.08
4.643	-0.08
4.644	-0.079
4.645	-0.079
4.646	-0.078
4.647	-0.078
4.648	-0.078
4.649	-0.078
4.65	-0.077
4.651	-0.077
4.652	-0.077
4.653	-0.077
4.654	-0.077
4.655	-0.076
4.656	-0.076
4.657	-0.076
4.658	-0.076
4.659	-0.075
4.66	-0.075
4.661	-0.075
4.662	-0.074
4.663	-0.074
4.664	-0.074
4.665	-0.074
4.666	-0.073
4.667	-0.073
4.668	-0.073
4.669	-0.073
4.67	-0.072
4.671	-0.072
4.672	-0.072
4.673	-0.072
4.674	-0.072
4.675	-0.071
4.676	-0.071
4.677	-0.071
4.678	-0.071
4.679	-0.07
4.68	-0.07
4.681	-0.07
4.682	-0.07
4.683	-0.07
4.684	-0.069
4.685	-0.069
4.686	-0.069
4.687	-0.069
4.688	-0.069
4.689	-0.068
4.69	-0.068
4.691	-0.068
4.692	-0.068
4.693	-0.067
4.694	-0.067
4.695	-0.067
4.696	-0.066
4.697	-0.066
4.698	-0.066
4.699	-0.066
4.7	-0.065
4.701	-0.065
4.702	-0.065
4.703	-0.065
4.704	-0.065
4.705	-0.065
4.706	-0.065
4.707	-0.065
4.708	-0.064
4.709	-0.064
4.71	-0.064
4.711	-0.064
4.712	-0.063
4.713	-0.063
4.714	-0.063
4.715	-0.063
4.716	-0.062
4.717	-0.062
4.718	-0.062
4.719	-0.061
4.72	-0.061
4.721	-0.061
4.722	-0.061
4.723	-0.061
4.724	-0.061
4.725	-0.061
4.726	-0.061
4.727	-0.061
4.728	-0.061
4.729	-0.06
4.73	-0.06
4.731	-0.06
4.732	-0.06
4.733	-0.059
4.734	-0.059
4.735	-0.059
4.736	-0.058
4.737	-0.058
4.738	-0.057
4.739	-0.057
4.74	-0.057
4.741	-0.057
4.742	-0.057
4.743	-0.057
4.744	-0.057
4.745	-0.057
4.746	-0.057
4.747	-0.057
4.748	-0.057
4.749	-0.056
4.75	-0.055
4.751	-0.054
4.752	-0.052
4.753	-0.05
4.754	-0.048
4.755	-0.044
4.756	-0.04
4.757	-0.036
4.758	-0.031
4.759	-0.026
4.76	-0.021
4.761	-0.015
4.762	-0.009
4.763	-0.003
4.764	0.002
4.765	0.008
4.766	0.013
4.767	0.018
4.768	0.022
4.769	0.026
4.77	0.03
4.771	0.033
4.772	0.037
4.773	0.04
4.774	0.042
4.775	0.045
4.776	0.047
4.777	0.05
4.778	0.053
4.779	0.055
4.78	0.058
4.781	0.061
4.782	0.063
4.783	0.066
4.784	0.068
4.785	0.071
4.786	0.073
4.787	0.074
4.788	0.075
4.789	0.076
4.79	0.076
4.791	0.075
4.792	0.074
4.793	0.073
4.794	0.071
4.795	0.068
4.796	0.066
4.797	0.062
4.798	0.059
4.799	0.055
4.8	0.051
4.801	0.047
4.802	0.043
4.803	0.039
4.804	0.035
4.805	0.031
4.806	0.026
4.807	0.022
4.808	0.017
4.809	0.013
4.81	0.008
4.811	0.003
4.812	-0.002
4.813	-0.007
4.814	-0.012
4.815	-0.017
4.816	-0.022
4.817	-0.026
4.818	-0.031
4.819	-0.035
4.82	-0.04
4.821	-0.043
4.822	-0.047
4.823	-0.049
4.824	-0.052
4.825	-0.054
4.826	-0.055
4.827	-0.056
4.828	-0.057
4.829	-0.058
4.83	-0.058
4.831	-0.058
4.832	-0.058
4.833	-0.058
4.834	-0.057
4.835	-0.057
4.836	-0.057
4.837	-0.057
4.838	-0.057
4.839	-0.056
4.84	-0.056
4.841	-0.056
4.842	-0.057
4.843	-0.057
4.844	-0.057
4.845	-0.057
4.846	-0.056
4.847	-0.056
4.848	-0.056
4.849	-0.056
4.85	-0.055
4.851	-0.055
4.852	-0.055
4.853	-0.054
4.854	-0.054
4.855	-0.054
4.856	-0.053
4.857	-0.053
4.858	-0.053
4.859	-0.053
4.86	-0.052
4.861	-0.052
4.862	-0.052
4.863	-0.052
4.864	-0.053
4.865	-0.053
4.866	-0.053
4.867	-0.053
4.868	-0.053
4.869	-0.052
4.87	-0.052
4.871	-0.052
4.872	-0.052
4.873	-0.051
4.874	-0.051
4.875	-0.051
4.876	-0.05
4.877	-0.05
4.878	-0.05
4.879	-0.049
4.88	-0.049
4.881	-0.049
4.882	-0.049
4.883	-0.049
4.884	-0.049
4.885	-0.049
4.886	-0.049
4.887	-0.049
4.888	-0.049
4.889	-0.049
4.89	-0.049
4.891	-0.049
4.892	-0.049
4.893	-0.049
4.894	-0.048
4.895	-0.048
4.896	-0.048
4.897	-0.047
4.898	-0.046
4.899	-0.046
4.9	-0.045
4.901	-0.044
4.902	-0.044
4.903	-0.044
4.904	-0.044
4.905	-0.044
4.906	-0.045
4.907	-0.046
4.908	-0.048
4.909	-0.051
4.91	-0.055
4.911	-0.06
4.912	-0.066
4.913	-0.072
4.914	-0.079
4.915	-0.086
4.916	-0.094
4.917	-0.102
4.918	-0.109
4.919	-0.116
4.92	-0.121
4.921	-0.125
4.922	-0.126
4.923	-0.125
4.924	-0.121
4.925	-0.113
4.926	-0.101
4.927	-0.086
4.928	-0.065
4.929	-0.041
4.93	-0.012
4.931	0.021
4.932	0.057
4.933	0.097
4.934	0.139
4.935	0.183
4.936	0.228
4.937	0.273
4.938	0.317
4.939	0.36
4.94	0.4
4.941	0.437
4.942	0.47
4.943	0.498
4.944	0.521
4.945	0.537
4.946	0.548
4.947	0.552
4.948	0.55
4.949	0.542
4.95	0.528
4.951	0.509
4.952	0.484
4.953	0.456
4.954	0.423
4.955	0.387
4.956	0.349
4.957	0.31
4.958	0.27
4.959	0.229
4.96	0.188
4.961	0.149
4.962	0.112
4.963	0.076
4.964	0.042
4.965	0.012
4.966	-0.016
4.967	-0.041
4.968	-0.062
4.969	-0.08
4.97	-0.095
4.971	-0.106
4.972	-0.115
4.973	-0.121
4.974	-0.124
4.975	-0.124
4.976	-0.123
4.977	-0.12
4.978	-0.116
4.979	-0.11
4.98	-0.104
4.981	-0.097
4.982	-0.091
4.983	-0.085
4.984	-0.079
4.985	-0.074
4.986	-0.07
4.987	-0.067
4.988	-0.064
4.989	-0.063
4.99	-0.062
4.991	-0.062
4.992	-0.062
4.993	-0.063
4.994	-0.064
4.995	-0.065
4.996	-0.066
4.997	-0.067
4.998	-0.068
4.999	-0.068
5	-0.069
5.001	-0.068
5.002	-0.068
5.003	-0.067
5.004	-0.066
5.005	-0.065
5.006	-0.064
5.007	-0.063
5.008	-0.062
5.009	-0.062
5.01	-0.061
5.011	-0.061
5.012	-0.06
5.013	-0.061
5.014	-0.061
5.015	-0.061
5.016	-0.061
5.017	-0.062
5.018	-0.062
5.019	-0.062
5.02	-0.063
5.021	-0.063
5.022	-0.062
5.023	-0.062
5.024	-0.062
5.025	-0.061
5.026	-0.061
5.027	-0.06
5.028	-0.06
5.029	-0.059
5.03	-0.059
5.031	-0.058
5.032	-0.058
5.033	-0.058
5.034	-0.058
5.035	-0.058
5.036	-0.058
5.037	-0.058
5.038	-0.058
5.039	-0.058
5.04	-0.058
5.041	-0.058
5.042	-0.058
5.043	-0.058
5.044	-0.057
5.045	-0.057
5.046	-0.057
5.047	-0.056
5.048	-0.056
5.049	-0.056
5.05	-0.055
5.051	-0.055
5.052	-0.055
5.053	-0.054
5.054	-0.054
5.055	-0.054
5.056	-0.054
5.057	-0.054
5.058	-0.054
5.059	-0.054
5.06	-0.054
5.061	-0.054
5.062	-0.054
5.063	-0.054
5.064	-0.054
5.065	-0.053
5.066	-0.053
5.067	-0.053
5.068	-0.053
5.069	-0.052
5.07	-0.052
5.071	-0.052
5.072	-0.051
5.073	-0.051
5.074	-0.051
5.075	-0.051
5.076	-0.051
5.077	-0.051
5.078	-0.051
5.079	-0.051
5.08	-0.05
5.081	-0.05
5.082	-0.05
5.083	-0.05
5.084	-0.05
5.085	-0.05
5.086	-0.05
5.087	-0.05
5.088	-0.05
5.089	-0.049
5.09	-0.049
5.091	-0.049
5.092	-0.048
5.093	-0.048
5.094	-0.048
5.095	-0.048
5.096	-0.047
5.097	-0.047
5.098	-0.047
5.099	-0.047
5.1	-0.047
5.101	-0.047
5.102	-0.046
5.103	-0.046
5.104	-0.046
5.105	-0.046
5.106	-0.046
5.107	-0.045
5.108	-0.045
5.109	-0.044
5.11	-0.043
5.111	-0.042
5.112	-0.04
5.113	-0.038
5.114	-0.036
5.115	-0.034
5.116	-0.031
5.117	-0.028
5.118	-0.025
5.119	-0.021
5.12	-0.017
5.121	-0.013
5.122	-0.008
5.123	-0.004
5.124	0.001
5.125	0.006
5.126	0.01
5.127	0.015
5.128	0.02
5.129	0.024
5.13	0.029
5.131	0.033
5.132	0.037
5.133	0.041
5.134	0.045
5.135	0.049
5.136	0.053
5.137	0.057
5.138	0.061
5.139	0.065
5.14	0.069
5.141	0.073
5.142	0.077
5.143	0.081
5.144	0.085
5.145	0.089
5.146	0.093
5.147	0.097
5.148	0.101
5.149	0.105
5.15	0.109
5.151	0.112
5.152	0.116
5.153	0.12
5.154	0.123
5.155	0.127
5.156	0.13
5.157	0.133
5.158	0.135
5.159	0.138
5.16	0.141
5.161	0.143
5.162	0.145
5.163	0.147
5.164	0.149
5.165	0.15
5.166	0.152
5.167	0.154
5.168	0.155
5.169	0.156
5.17	0.158
5.171	0.159
5.172	0.161
5.173	0.162
5.174	0.163
5.175	0.164
5.176	0.166
5.177	0.167
5.178	0.168
5.179	0.17
5.18	0.171
5.181	0.172
5.182	0.173
5.183	0.174
5.184	0.174
5.185	0.175
5.186	0.176
5.187	0.176
5.188	0.176
5.189	0.177
5.19	0.177
5.191	0.177
5.192	0.177
5.193	0.177
5.194	0.176
5.195	0.176
5.196	0.175
5.197	0.175
5.198	0.174
5.199	0.173
5.2	0.172
5.201	0.171
5.202	0.17
5.203	0.168
5.204	0.166
5.205	0.165
5.206	0.162
5.207	0.16
5.208	0.157
5.209	0.155
5.21	0.152
5.211	0.148
5.212	0.145
5.213	0.141
5.214	0.138
5.215	0.134
5.216	0.13
5.217	0.126
5.218	0.122
5.219	0.118
5.22	0.114
5.221	0.11
5.222	0.106
5.223	0.101
5.224	0.097
5.225	0.093
5.226	0.088
5.227	0.084
5.228	0.079
5.229	0.074
5.23	0.069
5.231	0.064
5.232	0.059
5.233	0.053
5.234	0.048
5.235	0.042
5.236	0.037
5.237	0.031
5.238	0.025
5.239	0.02
5.24	0.014
5.241	0.009
5.242	0.003
5.243	-0.002
5.244	-0.008
5.245	-0.013
5.246	-0.018
5.247	-0.023
5.248	-0.028
5.249	-0.033
5.25	-0.037
5.251	-0.042
5.252	-0.046
5.253	-0.051
5.254	-0.055
5.255	-0.058
5.256	-0.062
5.257	-0.065
5.258	-0.069
5.259	-0.071
5.26	-0.074
5.261	-0.076
5.262	-0.078
5.263	-0.079
5.264	-0.08
5.265	-0.081
5.266	-0.082
5.267	-0.082
5.268	-0.082
5.269	-0.082
5.27	-0.082
5.271	-0.082
5.272	-0.082
5.273	-0.081
5.274	-0.081
5.275	-0.081
5.276	-0.08
5.277	-0.08
5.278	-0.08
5.279	-0.079
5.28	-0.079
5.281	-0.079
5.282	-0.079
5.283	-0.078
5.284	-0.078
5.285	-0.078
5.286	-0.078
5.287	-0.078
5.288	-0.077
5.289	-0.077
5.29	-0.077
5.291	-0.076
5.292	-0.076
5.293	-0.076
5.294	-0.075
5.295	-0.075
5.296	-0.075
5.297	-0.075
5.298	-0.074
5.299	-0.074
5.3	-0.074
5.301	-0.074
5.302	-0.074
5.303	-0.073
5.304	-0.073
5.305	-0.073
5.306	-0.073
5.307	-0.073
5.308	-0.073
5.309	-0.072
5.31	-0.072
5.311	-0.072
5.312	-0.072
5.313	-0.071
5.314	-0.071
5.315	-0.071
5.316	-0.071
5.317	-0.07
5.318	-0.07
5.319	-0.07
5.32	-0.07
5.321	-0.069
5.322	-0.069
5.323	-0.069
5.324	-0.069
5.325	-0.068
5.326	-0.068
5.327	-0.068
5.328	-0.068
5.329	-0.068
5.33	-0.067
5.331	-0.067
5.332	-0.067
5.333	-0.067
5.334	-0.066
5.335	-0.066
5.336	-0.066
5.337	-0.066
5.338	-0.065
5.339	-0.065
5.34	-0.065
5.341	-0.065
5.342	-0.065
5.343	-0.064
5.344	-0.064
5.345	-0.064
5.346	-0.064
5.347	-0.064
5.348	-0.063
5.349	-0.063
5.35	-0.063
5.351	-0.063
5.352	-0.063
5.353	-0.062
5.354	-0.062
5.355	-0.062
5.356	-0.062
5.357	-0.061
5.358	-0.061
5.359	-0.061
5.36	-0.061
5.361	-0.061
5.362	-0.06
5.363	-0.06
5.364	-0.06
5.365	-0.06
5.366	-0.06
5.367	-0.059
5.368	-0.059
5.369	-0.059
5.37	-0.059
5.371	-0.059
5.372	-0.058
5.373	-0.058
5.374	-0.058
5.375	-0.058
5.376	-0.058
5.377	-0.057
5.378	-0.057
5.379	-0.057
5.38	-0.057
5.381	-0.057
5.382	-0.056
5.383	-0.056
5.384	-0.056
5.385	-0.056
5.386	-0.056
5.387	-0.056
5.388	-0.055
5.389	-0.055
5.39	-0.055
5.391	-0.055
5.392	-0.055
5.393	-0.055
5.394	-0.054
5.395	-0.054
5.396	-0.054
5.397	-0.054
5.398	-0.054
5.399	-0.053
5.4	-0.053
5.401	-0.053
5.402	-0.053
5.403	-0.053
5.404	-0.053
5.405	-0.052
5.406	-0.052
5.407	-0.052
5.408	-0.052
5.409	-0.052
5.41	-0.052
5.411	-0.051
5.412	-0.051
5.413	-0.051
5.414	-0.051
5.415	-0.051
5.416	-0.051
5.417	-0.05
5.418	-0.05
5.419	-0.05
5.42	-0.05
5.421	-0.05
5.422	-0.05
5.423	-0.049
5.424	-0.049
5.425	-0.049
5.426	-0.049
5.427	-0.049
5.428	-0.049
5.429	-0.048
5.43	-0.048
5.431	-0.048
5.432	-0.048
5.433	-0.048
5.434	-0.048
5.435	-0.048
5.436	-0.047
5.437	-0.047
5.438	-0.047
5.439	-0.047
5.44	-0.047
5.441	-0.047
5.442	-0.047
5.443	-0.046
5.444	-0.046
5.445	-0.046
5.446	-0.046
5.447	-0.046
5.448	-0.046
5.449	-0.045
5.45	-0.045
5.451	-0.045
5.452	-0.045
5.453	-0.045
5.454	-0.045
5.455	-0.044
5.456	-0.044
5.457	-0.044
5.458	-0.044
5.459	-0.044
5.46	-0.044
5.461	-0.044
5.462	-0.044
5.463	-0.043
5.464	-0.043
5.465	-0.043
5.466	-0.043
5.467	-0.043
5.468	-0.042
5.469	-0.042
5.47	-0.042
5.471	-0.042
5.472	-0.042
5.473	-0.042
5.474	-0.041
5.475	-0.041
5.476	-0.041
5.477	-0.041
5.478	-0.041
5.479	-0.041
5.48	-0.041
5.481	-0.041
5.482	-0.041
5.483	-0.041
5.484	-0.041
5.485	-0.04
5.486	-0.04
5.487	-0.04
5.488	-0.04
5.489	-0.04
5.49	-0.04
5.491	-0.04
5.492	-0.039
5.493	-0.039
5.494	-0.039
5.495	-0.039
5.496	-0.039
5.497	-0.039
5.498	-0.038
5.499	-0.038
5.5	-0.038
5.501	-0.038
5.502	-0.038
5.503	-0.038
5.504	-0.038
5.505	-0.038
5.506	-0.037
5.507	-0.037
5.508	-0.037
5.509	-0.037
5.51	-0.037
5.511	-0.037
5.512	-0.037
5.513	-0.037
5.514	-0.036
5.515	-0.036
5.516	-0.036
5.517	-0.036
5.518	-0.036
5.519	-0.036
5.52	-0.036
5.521	-0.036
5.522	-0.035
5.523	-0.035
5.524	-0.035
5.525	-0.035
5.526	-0.035
5.527	-0.035
5.528	-0.035
5.529	-0.035
5.53	-0.034
5.531	-0.034
5.532	-0.034
5.533	-0.034
5.534	-0.034
5.535	-0.034
5.536	-0.034
5.537	-0.034
5.538	-0.034
5.539	-0.033
5.54	-0.033
5.541	-0.033
5.542	-0.033
5.543	-0.033
5.544	-0.033
5.545	-0.033
5.546	-0.033
5.547	-0.033
5.548	-0.033
5.549	-0.033
5.55	-0.032
5.551	-0.032
5.552	-0.032
5.553	-0.032
5.554	-0.032
5.555	-0.032
5.556	-0.032
5.557	-0.032
5.558	-0.032
5.559	-0.032
5.56	-0.031
5.561	-0.031
5.562	-0.031
5.563	-0.031
5.564	-0.031
5.565	-0.031
5.566	-0.031
5.567	-0.031
5.568	-0.03
5.569	-0.03
5.57	-0.03
5.571	-0.03
5.572	-0.03
5.573	-0.03
5.574	-0.03
5.575	-0.03
5.576	-0.03
5.577	-0.03
5.578	-0.03
5.579	-0.029
5.58	-0.029
5.581	-0.029
5.582	-0.029
5.583	-0.029
5.584	-0.029
5.585	-0.028
5.586	-0.028
5.587	-0.028
5.588	-0.028
5.589	-0.028
5.59	-0.028
5.591	-0.028
5.592	-0.028
5.593	-0.028
5.594	-0.028
5.595	-0.028
5.596	-0.028
5.597	-0.028
5.598	-0.028
5.599	-0.028
5.6	-0.028
5.601	-0.028
5.602	-0.027
5.603	-0.027
5.604	-0.027
5.605	-0.027
5.606	-0.027
5.607	-0.026
5.608	-0.026
5.609	-0.026
5.61	-0.026
5.611	-0.026
5.612	-0.026
5.613	-0.026
5.614	-0.026
5.615	-0.026
5.616	-0.026
5.617	-0.026
5.618	-0.026
5.619	-0.026
5.62	-0.026
5.621	-0.026
5.622	-0.026
5.623	-0.025
5.624	-0.025
5.625	-0.025
5.626	-0.025
5.627	-0.024
5.628	-0.024
5.629	-0.024
5.63	-0.024
5.631	-0.024
5.632	-0.024
5.633	-0.024
5.634	-0.024
5.635	-0.024
5.636	-0.024
5.637	-0.024
5.638	-0.024
5.639	-0.024
5.64	-0.024
5.641	-0.024
5.642	-0.024
5.643	-0.024
5.644	-0.024
5.645	-0.023
5.646	-0.023
5.647	-0.023
5.648	-0.022
5.649	-0.022
5.65	-0.022
5.651	-0.022
5.652	-0.022
5.653	-0.022
5.654	-0.022
5.655	-0.022
5.656	-0.023
5.657	-0.023
5.658	-0.023
5.659	-0.023
5.66	-0.022
5.661	-0.021
5.662	-0.02
5.663	-0.018
5.664	-0.016
5.665	-0.013
5.666	-0.009
5.667	-0.005
5.668	-0.001
5.669	0.004
5.67	0.01
5.671	0.015
5.672	0.021
5.673	0.027
5.674	0.033
5.675	0.038
5.676	0.043
5.677	0.048
5.678	0.053
5.679	0.057
5.68	0.061
5.681	0.064
5.682	0.067
5.683	0.07
5.684	0.073
5.685	0.075
5.686	0.078
5.687	0.08
5.688	0.083
5.689	0.085
5.69	0.088
5.691	0.09
5.692	0.093
5.693	0.096
5.694	0.098
5.695	0.1
5.696	0.102
5.697	0.104
5.698	0.105
5.699	0.105
5.7	0.105
5.701	0.105
5.702	0.104
5.703	0.103
5.704	0.101
5.705	0.098
5.706	0.095
5.707	0.092
5.708	0.089
5.709	0.085
5.71	0.081
5.711	0.077
5.712	0.073
5.713	0.069
5.714	0.065
5.715	0.061
5.716	0.056
5.717	0.052
5.718	0.047
5.719	0.043
5.72	0.038
5.721	0.033
5.722	0.028
5.723	0.023
5.724	0.018
5.725	0.013
5.726	0.008
5.727	0.003
5.728	-0.002
5.729	-0.007
5.73	-0.011
5.731	-0.015
5.732	-0.018
5.733	-0.022
5.734	-0.024
5.735	-0.026
5.736	-0.028
5.737	-0.029
5.738	-0.03
5.739	-0.031
5.74	-0.031
5.741	-0.032
5.742	-0.032
5.743	-0.031
5.744	-0.031
5.745	-0.031
5.746	-0.031
5.747	-0.031
5.748	-0.031
5.749	-0.031
5.75	-0.031
5.751	-0.031
5.752	-0.031
5.753	-0.032
5.754	-0.032
5.755	-0.032
5.756	-0.032
5.757	-0.032
5.758	-0.032
5.759	-0.031
5.76	-0.031
5.761	-0.031
5.762	-0.031
5.763	-0.03
5.764	-0.03
5.765	-0.03
5.766	-0.029
5.767	-0.029
5.768	-0.029
5.769	-0.029
5.77	-0.029
5.771	-0.029
5.772	-0.029
5.773	-0.029
5.774	-0.029
5.775	-0.029
5.776	-0.029
5.777	-0.029
5.778	-0.029
5.779	-0.029
5.78	-0.029
5.781	-0.029
5.782	-0.029
5.783	-0.029
5.784	-0.028
5.785	-0.028
5.786	-0.028
5.787	-0.027
5.788	-0.027
5.789	-0.027
5.79	-0.027
5.791	-0.027
5.792	-0.026
5.793	-0.026
5.794	-0.026
5.795	-0.027
5.796	-0.027
5.797	-0.027
5.798	-0.027
5.799	-0.027
5.8	-0.027
5.801	-0.027
5.802	-0.027
5.803	-0.027
5.804	-0.027
5.805	-0.027
5.806	-0.026
5.807	-0.026
5.808	-0.025
5.809	-0.025
5.81	-0.024
5.811	-0.023
5.812	-0.023
5.813	-0.022
5.814	-0.022
5.815	-0.023
5.816	-0.024
5.817	-0.025
5.818	-0.027
5.819	-0.03
5.82	-0.034
5.821	-0.038
5.822	-0.044
5.823	-0.05
5.824	-0.057
5.825	-0.064
5.826	-0.072
5.827	-0.08
5.828	-0.087
5.829	-0.094
5.83	-0.1
5.831	-0.104
5.832	-0.107
5.833	-0.106
5.834	-0.103
5.835	-0.096
5.836	-0.086
5.837	-0.072
5.838	-0.053
5.839	-0.03
5.84	-0.003
5.841	0.028
5.842	0.063
5.843	0.101
5.844	0.142
5.845	0.186
5.846	0.23
5.847	0.275
5.848	0.32
5.849	0.364
5.85	0.405
5.851	0.443
5.852	0.478
5.853	0.507
5.854	0.531
5.855	0.55
5.856	0.563
5.857	0.57
5.858	0.57
5.859	0.563
5.86	0.551
5.861	0.534
5.862	0.511
5.863	0.484
5.864	0.452
5.865	0.418
5.866	0.381
5.867	0.342
5.868	0.301
5.869	0.261
5.87	0.22
5.871	0.18
5.872	0.142
5.873	0.105
5.874	0.071
5.875	0.04
5.876	0.011
5.877	-0.015
5.878	-0.038
5.879	-0.057
5.88	-0.073
5.881	-0.086
5.882	-0.095
5.883	-0.103
5.884	-0.106
5.885	-0.108
5.886	-0.107
5.887	-0.105
5.888	-0.101
5.889	-0.096
5.89	-0.09
5.891	-0.084
5.892	-0.078
5.893	-0.071
5.894	-0.066
5.895	-0.06
5.896	-0.056
5.897	-0.052
5.898	-0.049
5.899	-0.047
5.9	-0.046
5.901	-0.046
5.902	-0.046
5.903	-0.047
5.904	-0.048
5.905	-0.049
5.906	-0.05
5.907	-0.051
5.908	-0.052
5.909	-0.053
5.91	-0.053
5.911	-0.053
5.912	-0.053
5.913	-0.052
5.914	-0.051
5.915	-0.051
5.916	-0.05
5.917	-0.049
5.918	-0.048
5.919	-0.047
5.92	-0.047
5.921	-0.046
5.922	-0.046
5.923	-0.046
5.924	-0.046
5.925	-0.047
5.926	-0.047
5.927	-0.047
5.928	-0.048
5.929	-0.048
5.93	-0.048
5.931	-0.048
5.932	-0.048
5.933	-0.048
5.934	-0.047
5.935	-0.047
5.936	-0.046
5.937	-0.046
5.938	-0.045
5.939	-0.045
5.94	-0.044
5.941	-0.044
5.942	-0.044
5.943	-0.044
5.944	-0.044
5.945	-0.044
5.946	-0.044
5.947	-0.044
5.948	-0.044
5.949	-0.044
5.95	-0.044
5.951	-0.044
5.952	-0.044
5.953	-0.044
5.954	-0.044
5.955	-0.044
5.956	-0.044
5.957	-0.043
5.958	-0.043
5.959	-0.043
5.96	-0.042
5.961	-0.042
5.962	-0.042
5.963	-0.041
5.964	-0.041
5.965	-0.041
5.966	-0.041
5.967	-0.041
5.968	-0.041
5.969	-0.041
5.97	-0.041
5.971	-0.041
5.972	-0.041
5.973	-0.041
5.974	-0.041
5.975	-0.041
5.976	-0.041
5.977	-0.041
5.978	-0.04
5.979	-0.04
5.98	-0.04
5.981	-0.04
5.982	-0.039
5.983	-0.039
5.984	-0.039
5.985	-0.039
5.986	-0.039
5.987	-0.038
5.988	-0.038
5.989	-0.038
5.99	-0.038
5.991	-0.038
5.992	-0.038
5.993	-0.038
5.994	-0.038
5.995	-0.038
5.996	-0.038
5.997	-0.038
5.998	-0.038
5.999	-0.038
6	-0.037
6.001	-0.037
6.002	-0.037
6.003	-0.037
6.004	-0.036
6.005	-0.036
6.006	-0.036
6.007	-0.036
6.008	-0.036
6.009	-0.035
6.01	-0.035
6.011	-0.035
6.012	-0.035
6.013	-0.035
6.014	-0.035
6.015	-0.035
6.016	-0.035
6.017	-0.035
6.018	-0.034
6.019	-0.034
6.02	-0.033
6.021	-0.032
6.022	-0.03
6.023	-0.029
6.024	-0.027
6.025	-0.024
6.026	-0.022
6.027	-0.019
6.028	-0.015
6.029	-0.012
6.03	-0.008
6.031	-0.004
6.032	0.001
6.033	0.005
6.034	0.01
6.035	0.014
6.036	0.019
6.037	0.024
6.038	0.028
6.039	0.033
6.04	0.037
6.041	0.041
6.042	0.046
6.043	0.05
6.044	0.054
6.045	0.058
6.046	0.062
6.047	0.065
6.048	0.069
6.049	0.073
6.05	0.077
6.051	0.081
6.052	0.085
6.053	0.089
6.054	0.093
6.055	0.097
6.056	0.101
6.057	0.105
6.058	0.109
6.059	0.113
6.06	0.117
6.061	0.121
6.062	0.124
6.063	0.128
6.064	0.132
6.065	0.135
6.066	0.138
6.067	0.141
6.068	0.144
6.069	0.146
6.07	0.149
6.071	0.151
6.072	0.153
6.073	0.155
6.074	0.157
6.075	0.159
6.076	0.161
6.077	0.162
6.078	0.164
6.079	0.165
6.08	0.166
6.081	0.168
6.082	0.169
6.083	0.17
6.084	0.172
6.085	0.173
6.086	0.174
6.087	0.176
6.088	0.177
6.089	0.178
6.09	0.179
6.091	0.18
6.092	0.181
6.093	0.182
6.094	0.183
6.095	0.184
6.096	0.184
6.097	0.185
6.098	0.185
6.099	0.185
6.1	0.185
6.101	0.185
6.102	0.185
6.103	0.185
6.104	0.184
6.105	0.184
6.106	0.184
6.107	0.183
6.108	0.182
6.109	0.181
6.11	0.181
6.111	0.18
6.112	0.178
6.113	0.177
6.114	0.175
6.115	0.173
6.116	0.171
6.117	0.169
6.118	0.166
6.119	0.164
6.12	0.161
6.121	0.157
6.122	0.154
6.123	0.15
6.124	0.147
6.125	0.143
6.126	0.139
6.127	0.135
6.128	0.131
6.129	0.127
6.13	0.123
6.131	0.119
6.132	0.115
6.133	0.111
6.134	0.106
6.135	0.102
6.136	0.098
6.137	0.093
6.138	0.088
6.139	0.084
6.14	0.079
6.141	0.074
6.142	0.068
6.143	0.063
6.144	0.057
6.145	0.052
6.146	0.046
6.147	0.041
6.148	0.035
6.149	0.029
6.15	0.024
6.151	0.018
6.152	0.012
6.153	0.007
6.154	0.001
6.155	-0.004
6.156	-0.009
6.157	-0.014
6.158	-0.019
6.159	-0.024
6.16	-0.029
6.161	-0.033
6.162	-0.038
6.163	-0.042
6.164	-0.046
6.165	-0.05
6.166	-0.054
6.167	-0.057
6.168	-0.06
6.169	-0.063
6.17	-0.066
6.171	-0.068
6.172	-0.07
6.173	-0.072
6.174	-0.073
6.175	-0.074
6.176	-0.075
6.177	-0.075
6.178	-0.075
6.179	-0.075
6.18	-0.075
6.181	-0.075
6.182	-0.075
6.183	-0.075
6.184	-0.074
6.185	-0.074
6.186	-0.074
6.187	-0.073
6.188	-0.073
6.189	-0.073
6.19	-0.073
6.191	-0.072
6.192	-0.072
6.193	-0.072
6.194	-0.072
6.195	-0.072
6.196	-0.072
6.197	-0.072
6.198	-0.071
6.199	-0.071
6.2	-0.071
6.201	-0.07
6.202	-0.07
6.203	-0.07
6.204	-0.07
6.205	-0.069
6.206	-0.069
6.207	-0.069
6.208	-0.068
6.209	-0.068
6.21	-0.068
6.211	-0.068
6.212	-0.068
6.213	-0.067
6.214	-0.067
6.215	-0.067
6.216	-0.067
6.217	-0.067
6.218	-0.067
6.219	-0.067
6.22	-0.066
6.221	-0.066
6.222	-0.066
6.223	-0.066
6.224	-0.065
6.225	-0.065
6.226	-0.065
6.227	-0.065
6.228	-0.064
6.229	-0.064
6.23	-0.064
6.231	-0.063
6.232	-0.063
6.233	-0.063
6.234	-0.063
6.235	-0.063
6.236	-0.063
6.237	-0.062
6.238	-0.062
6.239	-0.062
6.24	-0.062
6.241	-0.062
6.242	-0.062
6.243	-0.061
6.244	-0.061
6.245	-0.061
6.246	-0.061
6.247	-0.061
6.248	-0.06
6.249	-0.06
6.25	-0.06
6.251	-0.06
6.252	-0.059
6.253	-0.059
6.254	-0.059
6.255	-0.059
6.256	-0.059
6.257	-0.058
6.258	-0.058
6.259	-0.058
6.26	-0.058
6.261	-0.058
6.262	-0.058
6.263	-0.057
6.264	-0.057
6.265	-0.057
6.266	-0.057
6.267	-0.057
6.268	-0.057
6.269	-0.056
6.27	-0.056
6.271	-0.056
6.272	-0.056
6.273	-0.056
6.274	-0.055
6.275	-0.055
6.276	-0.055
6.277	-0.055
6.278	-0.055
6.279	-0.054
6.28	-0.054
6.281	-0.054
6.282	-0.054
6.283	-0.054
6.284	-0.053
6.285	-0.053
6.286	-0.053
6.287	-0.053
6.288	-0.053
6.289	-0.052
6.29	-0.052
6.291	-0.052
6.292	-0.052
6.293	-0.052
6.294	-0.052
6.295	-0.052
6.296	-0.051
6.297	-0.051
6.298	-0.051
6.299	-0.051
6.3	-0.051
6.301	-0.051
6.302	-0.051
6.303	-0.05
6.304	-0.05
6.305	-0.05
6.306	-0.05
6.307	-0.05
6.308	-0.05
6.309	-0.049
6.31	-0.049
6.311	-0.049
6.312	-0.049
6.313	-0.049
6.314	-0.049
6.315	-0.048
6.316	-0.048
6.317	-0.048
6.318	-0.048
6.319	-0.048
6.32	-0.048
6.321	-0.047
6.322	-0.047
6.323	-0.047
6.324	-0.047
6.325	-0.047
6.326	-0.047
6.327	-0.046
6.328	-0.046
6.329	-0.046
6.33	-0.046
6.331	-0.046
6.332	-0.046
6.333	-0.045
6.334	-0.045
6.335	-0.045
6.336	-0.045
6.337	-0.045
6.338	-0.045
6.339	-0.045
6.34	-0.044
6.341	-0.044
6.342	-0.044
6.343	-0.044
6.344	-0.044
6.345	-0.044
6.346	-0.044
6.347	-0.044
6.348	-0.044
6.349	-0.043
6.35	-0.043
6.351	-0.043
6.352	-0.043
6.353	-0.043
6.354	-0.043
6.355	-0.042
6.356	-0.042
6.357	-0.042
6.358	-0.042
6.359	-0.042
6.36	-0.042
6.361	-0.042
6.362	-0.041
6.363	-0.041
6.364	-0.041
6.365	-0.041
6.366	-0.041
6.367	-0.041
6.368	-0.041
6.369	-0.04
6.37	-0.04
6.371	-0.04
6.372	-0.04
6.373	-0.04
6.374	-0.04
6.375	-0.039
6.376	-0.039
6.377	-0.039
6.378	-0.039
6.379	-0.039
6.38	-0.039
6.381	-0.039
6.382	-0.038
6.383	-0.038
6.384	-0.038
6.385	-0.038
6.386	-0.038
6.387	-0.038
6.388	-0.038
6.389	-0.038
6.39	-0.038
6.391	-0.037
6.392	-0.037
6.393	-0.037
6.394	-0.037
6.395	-0.037
6.396	-0.037
6.397	-0.036
6.398	-0.036
6.399	-0.036
6.4	-0.036
6.401	-0.036
6.402	-0.036
6.403	-0.036
6.404	-0.036
6.405	-0.036
6.406	-0.036
6.407	-0.036
6.408	-0.036
6.409	-0.035
6.41	-0.035
6.411	-0.035
6.412	-0.035
6.413	-0.035
6.414	-0.035
6.415	-0.035
6.416	-0.035
6.417	-0.034
6.418	-0.034
6.419	-0.034
6.42	-0.034
6.421	-0.034
6.422	-0.034
6.423	-0.034
6.424	-0.034
6.425	-0.034
6.426	-0.034
6.427	-0.034
6.428	-0.034
6.429	-0.033
6.43	-0.033
6.431	-0.033
6.432	-0.033
6.433	-0.033
6.434	-0.033
6.435	-0.032
6.436	-0.032
6.437	-0.032
6.438	-0.032
6.439	-0.031
6.44	-0.031
6.441	-0.031
6.442	-0.031
6.443	-0.031
6.444	-0.031
6.445	-0.031
6.446	-0.031
6.447	-0.032
6.448	-0.032
6.449	-0.032
6.45	-0.032
6.451	-0.032
6.452	-0.032
6.453	-0.031
6.454	-0.031
6.455	-0.031
6.456	-0.03
6.457	-0.03
6.458	-0.029
6.459	-0.029
6.46	-0.029
6.461	-0.029
6.462	-0.029
6.463	-0.029
6.464	-0.029
6.465	-0.029
6.466	-0.029
6.467	-0.029
6.468	-0.029
6.469	-0.029
6.47	-0.028
6.471	-0.028
6.472	-0.027
6.473	-0.025
6.474	-0.023
6.475	-0.02
6.476	-0.016
6.477	-0.013
6.478	-0.008
6.479	-0.003
6.48	0.002
6.481	0.007
6.482	0.013
6.483	0.019
6.484	0.025
6.485	0.03
6.486	0.035
6.487	0.04
6.488	0.045
6.489	0.049
6.49	0.053
6.491	0.057
6.492	0.06
6.493	0.063
6.494	0.066
6.495	0.068
6.496	0.071
6.497	0.073
6.498	0.076
6.499	0.078
6.5	0.081
6.501	0.083
6.502	0.086
6.503	0.089
6.504	0.091
6.505	0.093
6.506	0.096
6.507	0.097
6.508	0.099
6.509	0.099
6.51	0.1
6.511	0.1
6.512	0.099
6.513	0.098
6.514	0.096
6.515	0.093
6.516	0.091
6.517	0.088
6.518	0.084
6.519	0.081
6.52	0.077
6.521	0.073
6.522	0.069
6.523	0.065
6.524	0.061
6.525	0.056
6.526	0.052
6.527	0.048
6.528	0.043
6.529	0.039
6.53	0.034
6.531	0.03
6.532	0.025
6.533	0.02
6.534	0.015
6.535	0.009
6.536	0.004
6.537	-0.001
6.538	-0.006
6.539	-0.01
6.54	-0.015
6.541	-0.019
6.542	-0.023
6.543	-0.026
6.544	-0.029
6.545	-0.031
6.546	-0.033
6.547	-0.034
6.548	-0.035
6.549	-0.036
6.55	-0.036
6.551	-0.037
6.552	-0.037
6.553	-0.037
6.554	-0.036
6.555	-0.036
6.556	-0.036
6.557	-0.036
6.558	-0.036
6.559	-0.036
6.56	-0.036
6.561	-0.036
6.562	-0.036
6.563	-0.036
6.564	-0.036
6.565	-0.036
6.566	-0.036
6.567	-0.036
6.568	-0.036
6.569	-0.036
6.57	-0.036
6.571	-0.035
6.572	-0.035
6.573	-0.035
6.574	-0.034
6.575	-0.034
6.576	-0.034
6.577	-0.034
6.578	-0.033
6.579	-0.033
6.58	-0.033
6.581	-0.033
6.582	-0.033
6.583	-0.034
6.584	-0.034
6.585	-0.034
6.586	-0.034
6.587	-0.034
6.588	-0.034
6.589	-0.034
6.59	-0.034
6.591	-0.033
6.592	-0.033
6.593	-0.033
6.594	-0.033
6.595	-0.032
6.596	-0.032
6.597	-0.032
6.598	-0.031
6.599	-0.031
6.6	-0.031
6.601	-0.031
6.602	-0.031
6.603	-0.031
6.604	-0.031
6.605	-0.031
6.606	-0.031
6.607	-0.031
6.608	-0.031
6.609	-0.032
6.61	-0.032
6.611	-0.032
6.612	-0.032
6.613	-0.032
6.614	-0.031
6.615	-0.031
6.616	-0.031
6.617	-0.03
6.618	-0.03
6.619	-0.029
6.62	-0.028
6.621	-0.028
6.622	-0.027
6.623	-0.027
6.624	-0.027
6.625	-0.027
6.626	-0.028
6.627	-0.029
6.628	-0.031
6.629	-0.033
6.63	-0.037
6.631	-0.041
6.632	-0.046
6.633	-0.052
6.634	-0.058
6.635	-0.065
6.636	-0.073
6.637	-0.081
6.638	-0.089
6.639	-0.096
6.64	-0.102
6.641	-0.107
6.642	-0.11
6.643	-0.111
6.644	-0.108
6.645	-0.103
6.646	-0.094
6.647	-0.081
6.648	-0.064
6.649	-0.042
6.65	-0.016
6.651	0.014
6.652	0.047
6.653	0.085
6.654	0.126
6.655	0.169
6.656	0.213
6.657	0.259
6.658	0.304
6.659	0.348
6.66	0.39
6.661	0.429
6.662	0.465
6.663	0.496
6.664	0.522
6.665	0.543
6.666	0.557
6.667	0.566
6.668	0.568
6.669	0.563
6.67	0.553
6.671	0.537
6.672	0.516
6.673	0.49
6.674	0.459
6.675	0.425
6.676	0.389
6.677	0.35
6.678	0.31
6.679	0.269
6.68	0.229
6.681	0.189
6.682	0.15
6.683	0.113
6.684	0.078
6.685	0.045
6.686	0.015
6.687	-0.011
6.688	-0.035
6.689	-0.055
6.69	-0.072
6.691	-0.086
6.692	-0.096
6.693	-0.104
6.694	-0.109
6.695	-0.111
6.696	-0.111
6.697	-0.109
6.698	-0.106
6.699	-0.101
6.7	-0.095
6.701	-0.089
6.702	-0.083
6.703	-0.076
6.704	-0.07
6.705	-0.065
6.706	-0.06
6.707	-0.056
6.708	-0.053
6.709	-0.051
6.71	-0.05
6.711	-0.049
6.712	-0.049
6.713	-0.05
6.714	-0.051
6.715	-0.052
6.716	-0.053
6.717	-0.054
6.718	-0.055
6.719	-0.056
6.72	-0.056
6.721	-0.056
6.722	-0.056
6.723	-0.055
6.724	-0.055
6.725	-0.054
6.726	-0.053
6.727	-0.052
6.728	-0.051
6.729	-0.05
6.73	-0.049
6.731	-0.049
6.732	-0.049
6.733	-0.049
6.734	-0.049
6.735	-0.049
6.736	-0.049
6.737	-0.05
6.738	-0.05
6.739	-0.051
6.74	-0.051
6.741	-0.051
6.742	-0.051
6.743	-0.051
6.744	-0.05
6.745	-0.05
6.746	-0.049
6.747	-0.049
6.748	-0.048
6.749	-0.047
6.75	-0.047
6.751	-0.047
6.752	-0.046
6.753	-0.046
6.754	-0.046
6.755	-0.046
6.756	-0.046
6.757	-0.046
6.758	-0.046
6.759	-0.047
6.76	-0.047
6.761	-0.047
6.762	-0.047
6.763	-0.047
6.764	-0.047
6.765	-0.046
6.766	-0.046
6.767	-0.046
6.768	-0.045
6.769	-0.045
6.77	-0.045
6.771	-0.044
6.772	-0.044
6.773	-0.044
6.774	-0.044
6.775	-0.044
6.776	-0.044
6.777	-0.044
6.778	-0.044
6.779	-0.044
6.78	-0.044
6.781	-0.044
6.782	-0.044
6.783	-0.044
6.784	-0.044
6.785	-0.043
6.786	-0.043
6.787	-0.043
6.788	-0.043
6.789	-0.042
6.79	-0.042
6.791	-0.042
6.792	-0.042
6.793	-0.041
6.794	-0.041
6.795	-0.041
6.796	-0.041
6.797	-0.041
6.798	-0.041
6.799	-0.041
6.8	-0.04
6.801	-0.04
6.802	-0.04
6.803	-0.04
6.804	-0.04
6.805	-0.04
6.806	-0.04
6.807	-0.04
6.808	-0.04
6.809	-0.04
6.81	-0.04
6.811	-0.039
6.812	-0.039
6.813	-0.039
6.814	-0.039
6.815	-0.038
6.816	-0.038
6.817	-0.038
6.818	-0.038
6.819	-0.038
6.82	-0.038
6.821	-0.038
6.822	-0.038
6.823	-0.037
6.824	-0.037
6.825	-0.037
6.826	-0.037
6.827	-0.037
6.828	-0.036
6.829	-0.036
6.83	-0.035
6.831	-0.034
6.832	-0.033
6.833	-0.031
6.834	-0.029
6.835	-0.027
6.836	-0.025
6.837	-0.022
6.838	-0.019
6.839	-0.015
6.84	-0.011
6.841	-0.007
6.842	-0.003
6.843	0.002
6.844	0.006
6.845	0.011
6.846	0.015
6.847	0.02
6.848	0.025
6.849	0.029
6.85	0.034
6.851	0.038
6.852	0.042
6.853	0.046
6.854	0.051
6.855	0.054
6.856	0.058
6.857	0.062
6.858	0.066
6.859	0.07
6.86	0.074
6.861	0.078
6.862	0.081
6.863	0.086
6.864	0.09
6.865	0.094
6.866	0.098
6.867	0.102
6.868	0.106
6.869	0.11
6.87	0.114
6.871	0.118
6.872	0.122
6.873	0.125
6.874	0.129
6.875	0.132
6.876	0.135
6.877	0.138
6.878	0.141
6.879	0.144
6.88	0.146
6.881	0.149
6.882	0.151
6.883	0.153
6.884	0.155
6.885	0.157
6.886	0.158
6.887	0.16
6.888	0.161
6.889	0.163
6.89	0.164
6.891	0.166
6.892	0.167
6.893	0.168
6.894	0.17
6.895	0.171
6.896	0.172
6.897	0.174
6.898	0.175
6.899	0.176
6.9	0.177
6.901	0.178
6.902	0.179
6.903	0.18
6.904	0.181
6.905	0.182
6.906	0.182
6.907	0.183
6.908	0.183
6.909	0.183
6.91	0.184
6.911	0.184
6.912	0.183
6.913	0.183
6.914	0.183
6.915	0.183
6.916	0.182
6.917	0.182
6.918	0.181
6.919	0.18
6.92	0.179
6.921	0.178
6.922	0.177
6.923	0.176
6.924	0.174
6.925	0.172
6.926	0.17
6.927	0.168
6.928	0.166
6.929	0.163
6.93	0.16
6.931	0.157
6.932	0.154
6.933	0.15
6.934	0.146
6.935	0.143
6.936	0.139
6.937	0.135
6.938	0.131
6.939	0.127
6.94	0.123
6.941	0.119
6.942	0.114
6.943	0.11
6.944	0.106
6.945	0.102
6.946	0.097
6.947	0.093
6.948	0.088
6.949	0.083
6.95	0.078
6.951	0.073
6.952	0.068
6.953	0.063
6.954	0.057
6.955	0.052
6.956	0.046
6.957	0.041
6.958	0.035
6.959	0.029
6.96	0.024
6.961	0.018
6.962	0.013
6.963	0.007
6.964	0.002
6.965	-0.004
6.966	-0.009
6.967	-0.014
6.968	-0.019
6.969	-0.024
6.97	-0.029
6.971	-0.033
6.972	-0.038
6.973	-0.042
6.974	-0.046
6.975	-0.05
6.976	-0.054
6.977	-0.058
6.978	-0.061
6.979	-0.064
6.98	-0.066
6.981	-0.069
6.982	-0.071
6.983	-0.073
6.984	-0.074
6.985	-0.075
6.986	-0.076
6.987	-0.076
6.988	-0.077
6.989	-0.077
6.99	-0.077
6.991	-0.076
6.992	-0.076
6.993	-0.076
6.994	-0.076
6.995	-0.075
6.996	-0.075
6.997	-0.075
6.998	-0.074
6.999	-0.074
7	-0.074
7.001	-0.074
7.002	-0.073
7.003	-0.073
7.004	-0.073
7.005	-0.073
7.006	-0.073
7.007	-0.073
7.008	-0.072
7.009	-0.072
7.01	-0.072
7.011	-0.072
7.012	-0.071
7.013	-0.071
7.014	-0.071
7.015	-0.07
7.016	-0.07
7.017	-0.07
7.018	-0.07
7.019	-0.069
7.02	-0.069
7.021	-0.069
7.022	-0.069
7.023	-0.069
7.024	-0.068
7.025	-0.068
7.026	-0.068
7.027	-0.068
7.028	-0.068
7.029	-0.067
7.03	-0.067
7.031	-0.067
7.032	-0.067
7.033	-0.066
7.034	-0.066
7.035	-0.066
7.036	-0.066
7.037	-0.066
7.038	-0.065
7.039	-0.065
7.04	-0.065
7.041	-0.065
7.042	-0.065
7.043	-0.065
7.044	-0.064
7.045	-0.064
7.046	-0.064
7.047	-0.064
7.048	-0.063
7.049	-0.063
7.05	-0.063
7.051	-0.063
7.052	-0.063
7.053	-0.062
7.054	-0.062
7.055	-0.062
7.056	-0.062
7.057	-0.061
7.058	-0.061
7.059	-0.061
7.06	-0.061
7.061	-0.061
7.062	-0.061
7.063	-0.06
7.064	-0.06
7.065	-0.06
7.066	-0.06
7.067	-0.06
7.068	-0.059
7.069	-0.059
7.07	-0.059
7.071	-0.059
7.072	-0.059
7.073	-0.059
7.074	-0.058
7.075	-0.058
7.076	-0.058
7.077	-0.058
7.078	-0.058
7.079	-0.057
7.08	-0.057
7.081	-0.057
7.082	-0.057
7.083	-0.057
7.084	-0.056
7.085	-0.056
7.086	-0.056
7.087	-0.056
7.088	-0.055
7.089	-0.055
7.09	-0.055
7.091	-0.055
7.092	-0.055
7.093	-0.054
7.094	-0.054
7.095	-0.054
7.096	-0.054
7.097	-0.054
7.098	-0.054
7.099	-0.054
7.1	-0.053
7.101	-0.053
7.102	-0.053
7.103	-0.053
7.104	-0.053
7.105	-0.052
7.106	-0.052
7.107	-0.052
7.108	-0.052
7.109	-0.052
7.11	-0.051
7.111	-0.051
7.112	-0.051
7.113	-0.051
7.114	-0.051
7.115	-0.051
7.116	-0.051
7.117	-0.05
7.118	-0.05
7.119	-0.05
7.12	-0.05
7.121	-0.05
7.122	-0.05
7.123	-0.05
7.124	-0.049
7.125	-0.049
7.126	-0.049
7.127	-0.049
7.128	-0.048
7.129	-0.048
7.13	-0.048
7.131	-0.048
7.132	-0.048
7.133	-0.048
7.134	-0.048
7.135	-0.047
7.136	-0.047
7.137	-0.047
7.138	-0.047
7.139	-0.047
7.14	-0.047
7.141	-0.047
7.142	-0.047
7.143	-0.047
7.144	-0.046
7.145	-0.046
7.146	-0.046
7.147	-0.045
7.148	-0.045
7.149	-0.045
7.15	-0.045
7.151	-0.044
7.152	-0.044
7.153	-0.044
7.154	-0.044
7.155	-0.044
7.156	-0.044
7.157	-0.044
7.158	-0.044
7.159	-0.044
7.16	-0.044
7.161	-0.044
7.162	-0.044
7.163	-0.044
7.164	-0.044
7.165	-0.043
7.166	-0.043
7.167	-0.042
7.168	-0.042
7.169	-0.042
7.17	-0.041
7.171	-0.041
7.172	-0.041
7.173	-0.041
7.174	-0.041
7.175	-0.041
7.176	-0.041
7.177	-0.041
7.178	-0.041
7.179	-0.041
7.18	-0.041
7.181	-0.04
7.182	-0.039
7.183	-0.038
7.184	-0.035
7.185	-0.033
7.186	-0.03
7.187	-0.026
7.188	-0.021
7.189	-0.017
7.19	-0.011
7.191	-0.006
7.192	0
7.193	0.006
7.194	0.011
7.195	0.017
7.196	0.022
7.197	0.028
7.198	0.032
7.199	0.037
7.2	0.041
7.201	0.044
7.202	0.048
7.203	0.051
7.204	0.053
7.205	0.056
7.206	0.059
7.207	0.061
7.208	0.064
7.209	0.066
7.21	0.069
7.211	0.072
7.212	0.074
7.213	0.077
7.214	0.08
7.215	0.082
7.216	0.084
7.217	0.086
7.218	0.087
7.219	0.088
7.22	0.089
7.221	0.089
7.222	0.089
7.223	0.087
7.224	0.086
7.225	0.084
7.226	0.081
7.227	0.078
7.228	0.075
7.229	0.071
7.23	0.068
7.231	0.064
7.232	0.06
7.233	0.056
7.234	0.051
7.235	0.047
7.236	0.043
7.237	0.039
7.238	0.034
7.239	0.03
7.24	0.025
7.241	0.02
7.242	0.015
7.243	0.01
7.244	0.005
7.245	0
7.246	-0.005
7.247	-0.009
7.248	-0.014
7.249	-0.019
7.25	-0.023
7.251	-0.027
7.252	-0.031
7.253	-0.034
7.254	-0.037
7.255	-0.04
7.256	-0.042
7.257	-0.043
7.258	-0.044
7.259	-0.045
7.26	-0.046
7.261	-0.046
7.262	-0.046
7.263	-0.046
7.264	-0.046
7.265	-0.045
7.266	-0.045
7.267	-0.045
7.268	-0.045
7.269	-0.045
7.27	-0.045
7.271	-0.045
7.272	-0.045
7.273	-0.045
7.274	-0.045
7.275	-0.045
7.276	-0.045
7.277	-0.045
7.278	-0.045
7.279	-0.045
7.28	-0.045
7.281	-0.044
7.282	-0.044
7.283	-0.044
7.284	-0.044
7.285	-0.043
7.286	-0.043
7.287	-0.043
7.288	-0.042
7.289	-0.042
7.29	-0.042
7.291	-0.042
7.292	-0.042
7.293	-0.042
7.294	-0.042
7.295	-0.042
7.296	-0.042
7.297	-0.042
7.298	-0.042
7.299	-0.042
7.3	-0.042
7.301	-0.042
7.302	-0.041
7.303	-0.041
7.304	-0.041
7.305	-0.041
7.306	-0.04
7.307	-0.04
7.308	-0.04
7.309	-0.039
7.31	-0.039
7.311	-0.039
7.312	-0.039
7.313	-0.039
7.314	-0.039
7.315	-0.039
7.316	-0.039
7.317	-0.039
7.318	-0.039
7.319	-0.039
7.32	-0.039
7.321	-0.039
7.322	-0.039
7.323	-0.039
7.324	-0.039
7.325	-0.039
7.326	-0.038
7.327	-0.038
7.328	-0.037
7.329	-0.037
7.33	-0.036
7.331	-0.035
7.332	-0.035
7.333	-0.034
7.334	-0.034
7.335	-0.034
7.336	-0.035
7.337	-0.035
7.338	-0.037
7.339	-0.039
7.34	-0.043
7.341	-0.047
7.342	-0.051
7.343	-0.057
7.344	-0.063
7.345	-0.07
7.346	-0.078
7.347	-0.086
7.348	-0.093
7.349	-0.101
7.35	-0.107
7.351	-0.113
7.352	-0.116
7.353	-0.118
7.354	-0.116
7.355	-0.112
7.356	-0.104
7.357	-0.092
7.358	-0.076
7.359	-0.056
7.36	-0.031
7.361	-0.003
7.362	0.03
7.363	0.067
7.364	0.107
7.365	0.149
7.366	0.193
7.367	0.238
7.368	0.284
7.369	0.328
7.37	0.371
7.371	0.411
7.372	0.448
7.373	0.481
7.374	0.508
7.375	0.531
7.376	0.547
7.377	0.558
7.378	0.562
7.379	0.559
7.38	0.55
7.381	0.536
7.382	0.517
7.383	0.492
7.384	0.462
7.385	0.429
7.386	0.394
7.387	0.356
7.388	0.316
7.389	0.275
7.39	0.235
7.391	0.194
7.392	0.155
7.393	0.117
7.394	0.082
7.395	0.048
7.396	0.018
7.397	-0.01
7.398	-0.035
7.399	-0.056
7.4	-0.073
7.401	-0.088
7.402	-0.1
7.403	-0.108
7.404	-0.114
7.405	-0.116
7.406	-0.117
7.407	-0.116
7.408	-0.113
7.409	-0.108
7.41	-0.102
7.411	-0.096
7.412	-0.09
7.413	-0.083
7.414	-0.077
7.415	-0.071
7.416	-0.066
7.417	-0.062
7.418	-0.059
7.419	-0.057
7.42	-0.055
7.421	-0.054
7.422	-0.054
7.423	-0.055
7.424	-0.056
7.425	-0.057
7.426	-0.058
7.427	-0.059
7.428	-0.06
7.429	-0.061
7.43	-0.061
7.431	-0.061
7.432	-0.061
7.433	-0.061
7.434	-0.06
7.435	-0.059
7.436	-0.058
7.437	-0.057
7.438	-0.056
7.439	-0.056
7.44	-0.055
7.441	-0.054
7.442	-0.054
7.443	-0.054
7.444	-0.054
7.445	-0.055
7.446	-0.055
7.447	-0.055
7.448	-0.056
7.449	-0.056
7.45	-0.056
7.451	-0.056
7.452	-0.056
7.453	-0.056
7.454	-0.056
7.455	-0.055
7.456	-0.055
7.457	-0.054
7.458	-0.053
7.459	-0.053
7.46	-0.052
7.461	-0.052
7.462	-0.051
7.463	-0.051
7.464	-0.051
7.465	-0.051
7.466	-0.051
7.467	-0.051
7.468	-0.052
7.469	-0.052
7.47	-0.052
7.471	-0.052
7.472	-0.052
7.473	-0.052
7.474	-0.052
7.475	-0.051
7.476	-0.051
7.477	-0.051
7.478	-0.05
7.479	-0.05
7.48	-0.049
7.481	-0.049
7.482	-0.049
7.483	-0.048
7.484	-0.048
7.485	-0.048
7.486	-0.048
7.487	-0.048
7.488	-0.048
7.489	-0.048
7.49	-0.048
7.491	-0.048
7.492	-0.048
7.493	-0.048
7.494	-0.048
7.495	-0.048
7.496	-0.048
7.497	-0.047
7.498	-0.047
7.499	-0.047
7.5	-0.047
7.501	-0.046
7.502	-0.046
7.503	-0.046
7.504	-0.045
7.505	-0.045
7.506	-0.045
7.507	-0.045
7.508	-0.045
7.509	-0.045
7.51	-0.044
7.511	-0.044
7.512	-0.044
7.513	-0.044
7.514	-0.044
7.515	-0.044
7.516	-0.044
7.517	-0.044
7.518	-0.044
7.519	-0.044
7.52	-0.044
7.521	-0.043
7.522	-0.043
7.523	-0.043
7.524	-0.043
7.525	-0.042
7.526	-0.042
7.527	-0.042
7.528	-0.042
7.529	-0.042
7.53	-0.042
7.531	-0.042
7.532	-0.042
7.533	-0.041
7.534	-0.041
7.535	-0.041
7.536	-0.041
7.537	-0.041
7.538	-0.04
7.539	-0.04
7.54	-0.039
7.541	-0.038
7.542	-0.037
7.543	-0.036
7.544	-0.034
7.545	-0.032
7.546	-0.029
7.547	-0.026
7.548	-0.023
7.549	-0.02
7.55	-0.016
7.551	-0.012
7.552	-0.008
7.553	-0.003
7.554	0.001
7.555	0.006
7.556	0.011
7.557	0.015
7.558	0.02
7.559	0.025
7.56	0.029
7.561	0.033
7.562	0.038
7.563	0.042
7.564	0.046
7.565	0.05
7.566	0.054
7.567	0.058
7.568	0.062
7.569	0.066
7.57	0.07
7.571	0.074
7.572	0.077
7.573	0.081
7.574	0.085
7.575	0.089
7.576	0.093
7.577	0.097
7.578	0.101
7.579	0.105
7.58	0.109
7.581	0.113
7.582	0.117
7.583	0.121
7.584	0.124
7.585	0.128
7.586	0.131
7.587	0.134
7.588	0.137
7.589	0.14
7.59	0.143
7.591	0.145
7.592	0.147
7.593	0.149
7.594	0.151
7.595	0.153
7.596	0.155
7.597	0.157
7.598	0.158
7.599	0.16
7.6	0.161
7.601	0.162
7.602	0.164
7.603	0.165
7.604	0.166
7.605	0.168
7.606	0.169
7.607	0.17
7.608	0.171
7.609	0.173
7.61	0.174
7.611	0.175
7.612	0.176
7.613	0.177
7.614	0.178
7.615	0.179
7.616	0.179
7.617	0.18
7.618	0.18
7.619	0.181
7.62	0.181
7.621	0.181
7.622	0.181
7.623	0.181
7.624	0.181
7.625	0.18
7.626	0.18
7.627	0.179
7.628	0.179
7.629	0.178
7.63	0.177
7.631	0.176
7.632	0.175
7.633	0.174
7.634	0.172
7.635	0.17
7.636	0.168
7.637	0.166
7.638	0.164
7.639	0.161
7.64	0.158
7.641	0.155
7.642	0.152
7.643	0.148
7.644	0.145
7.645	0.141
7.646	0.137
7.647	0.134
7.648	0.13
7.649	0.126
7.65	0.122
7.651	0.118
7.652	0.114
7.653	0.109
7.654	0.105
7.655	0.101
7.656	0.096
7.657	0.092
7.658	0.087
7.659	0.082
7.66	0.077
7.661	0.072
7.662	0.067
7.663	0.062
7.664	0.056
7.665	0.051
7.666	0.045
7.667	0.04
7.668	0.034
7.669	0.029
7.67	0.023
7.671	0.018
7.672	0.012
7.673	0.006
7.674	0.001
7.675	-0.004
7.676	-0.009
7.677	-0.015
7.678	-0.02
7.679	-0.025
7.68	-0.03
7.681	-0.034
7.682	-0.039
7.683	-0.043
7.684	-0.048
7.685	-0.052
7.686	-0.056
7.687	-0.059
7.688	-0.063
7.689	-0.066
7.69	-0.068
7.691	-0.071
7.692	-0.073
7.693	-0.075
7.694	-0.076
7.695	-0.077
7.696	-0.078
7.697	-0.079
7.698	-0.079
7.699	-0.079
7.7	-0.079
7.701	-0.079
7.702	-0.079
7.703	-0.079
7.704	-0.078
7.705	-0.078
7.706	-0.078
7.707	-0.077
7.708	-0.077
7.709	-0.077
7.71	-0.076
7.711	-0.076
7.712	-0.076
7.713	-0.076
7.714	-0.076
7.715	-0.075
7.716	-0.075
7.717	-0.075
7.718	-0.075
7.719	-0.075
7.72	-0.074
7.721	-0.074
7.722	-0.074
7.723	-0.074
7.724	-0.073
7.725	-0.073
7.726	-0.073
7.727	-0.072
7.728	-0.072
7.729	-0.072
7.73	-0.072
7.731	-0.071
7.732	-0.071
7.733	-0.071
7.734	-0.071
7.735	-0.071
7.736	-0.07
7.737	-0.07
7.738	-0.07
7.739	-0.07
7.74	-0.07
7.741	-0.069
7.742	-0.069
7.743	-0.069
7.744	-0.069
7.745	-0.068
7.746	-0.068
7.747	-0.068
7.748	-0.068
7.749	-0.067
7.75	-0.067
7.751	-0.067
7.752	-0.067
7.753	-0.066
7.754	-0.066
7.755	-0.066
7.756	-0.066
7.757	-0.065
7.758	-0.065
7.759	-0.065
7.76	-0.065
7.761	-0.065
7.762	-0.064
7.763	-0.064
7.764	-0.064
7.765	-0.064
7.766	-0.064
7.767	-0.064
7.768	-0.063
7.769	-0.063
7.77	-0.063
7.771	-0.063
7.772	-0.062
7.773	-0.062
7.774	-0.062
7.775	-0.062
7.776	-0.061
7.777	-0.061
7.778	-0.061
7.779	-0.061
7.78	-0.06
7.781	-0.06
7.782	-0.06
7.783	-0.06
7.784	-0.06
7.785	-0.06
7.786	-0.06
7.787	-0.059
7.788	-0.059
7.789	-0.059
7.79	-0.059
7.791	-0.059
7.792	-0.059
7.793	-0.058
7.794	-0.058
7.795	-0.058
7.796	-0.058
7.797	-0.057
7.798	-0.057
7.799	-0.057
7.8	-0.056
7.801	-0.056
7.802	-0.056
7.803	-0.056
7.804	-0.056
7.805	-0.056
7.806	-0.056
7.807	-0.056
7.808	-0.056
7.809	-0.056
7.81	-0.056
7.811	-0.056
7.812	-0.056
7.813	-0.055
7.814	-0.055
7.815	-0.055
7.816	-0.054
7.817	-0.054
7.818	-0.053
7.819	-0.053
7.82	-0.052
7.821	-0.052
7.822	-0.052
7.823	-0.052
7.824	-0.052
7.825	-0.052
7.826	-0.052
7.827	-0.052
7.828	-0.052
7.829	-0.052
7.83	-0.051
7.831	-0.051
7.832	-0.05
7.833	-0.048
7.834	-0.046
7.835	-0.044
7.836	-0.041
7.837	-0.037
7.838	-0.033
7.839	-0.028
7.84	-0.023
7.841	-0.018
7.842	-0.012
7.843	-0.006
7.844	0
7.845	0.005
7.846	0.011
7.847	0.016
7.848	0.021
7.849	0.026
7.85	0.03
7.851	0.034
7.852	0.037
7.853	0.04
7.854	0.043
7.855	0.046
7.856	0.049
7.857	0.051
7.858	0.054
7.859	0.056
7.86	0.059
7.861	0.061
7.862	0.064
7.863	0.067
7.864	0.069
7.865	0.072
7.866	0.074
7.867	0.076
7.868	0.078
7.869	0.079
7.87	0.08
7.871	0.08
7.872	0.08
7.873	0.079
7.874	0.077
7.875	0.075
7.876	0.073
7.877	0.07
7.878	0.067
7.879	0.063
7.88	0.059
7.881	0.056
7.882	0.052
7.883	0.048
7.884	0.043
7.885	0.039
7.886	0.035
7.887	0.031
7.888	0.027
7.889	0.022
7.89	0.018
7.891	0.013
7.892	0.008
7.893	0.004
7.894	-0.001
7.895	-0.006
7.896	-0.011
7.897	-0.016
7.898	-0.021
7.899	-0.026
7.9	-0.031
7.901	-0.035
7.902	-0.039
7.903	-0.042
7.904	-0.045
7.905	-0.048
7.906	-0.05
7.907	-0.051
7.908	-0.053
7.909	-0.053
7.91	-0.054
7.911	-0.054
7.912	-0.054
7.913	-0.054
7.914	-0.054
7.915	-0.054
7.916	-0.053
7.917	-0.053
7.918	-0.053
7.919	-0.053
7.92	-0.053
7.921	-0.053
7.922	-0.053
7.923	-0.053
7.924	-0.053
7.925	-0.053
7.926	-0.053
7.927	-0.053
7.928	-0.053
7.929	-0.053
7.93	-0.053
7.931	-0.052
7.932	-0.052
7.933	-0.052
7.934	-0.051
7.935	-0.051
7.936	-0.05
7.937	-0.05
7.938	-0.05
7.939	-0.05
7.94	-0.049
7.941	-0.049
7.942	-0.049
7.943	-0.049
7.944	-0.049
7.945	-0.049
7.946	-0.049
7.947	-0.05
7.948	-0.049
7.949	-0.049
7.95	-0.049
7.951	-0.049
7.952	-0.049
7.953	-0.049
7.954	-0.048
7.955	-0.048
7.956	-0.048
7.957	-0.047
7.958	-0.047
7.959	-0.046
7.96	-0.046
7.961	-0.046
7.962	-0.046
7.963	-0.046
7.964	-0.046
7.965	-0.046
7.966	-0.046
7.967	-0.046
7.968	-0.046
7.969	-0.046
7.97	-0.046
7.971	-0.046
7.972	-0.046
7.973	-0.046
7.974	-0.046
7.975	-0.046
7.976	-0.045
7.977	-0.045
7.978	-0.044
7.979	-0.044
7.98	-0.043
7.981	-0.042
7.982	-0.042
7.983	-0.041
7.984	-0.041
7.985	-0.041
7.986	-0.041
7.987	-0.042
7.988	-0.043
7.989	-0.045
7.99	-0.048
7.991	-0.052
7.992	-0.056
7.993	-0.062
7.994	-0.068
7.995	-0.075
7.996	-0.082
7.997	-0.09
7.998	-0.098
7.999	-0.105
8	-0.112
8.001	-0.118
8.002	-0.122
8.003	-0.124
8.004	-0.123
8.005	-0.12
8.006	-0.113
8.007	-0.102
8.008	-0.087
8.009	-0.068
8.01	-0.044
8.011	-0.017
8.012	0.015
8.013	0.051
8.014	0.09
8.015	0.132
8.016	0.176
8.017	0.221
8.018	0.266
8.019	0.311
8.02	0.355
8.021	0.396
8.022	0.434
8.023	0.468
8.024	0.496
8.025	0.52
8.026	0.538
8.027	0.55
8.028	0.556
8.029	0.555
8.03	0.547
8.031	0.535
8.032	0.516
8.033	0.493
8.034	0.464
8.035	0.432
8.036	0.397
8.037	0.36
8.038	0.321
8.039	0.28
8.04	0.239
8.041	0.199
8.042	0.159
8.043	0.121
8.044	0.085
8.045	0.051
8.046	0.02
8.047	-0.009
8.048	-0.034
8.049	-0.056
8.05	-0.074
8.051	-0.09
8.052	-0.102
8.053	-0.112
8.054	-0.118
8.055	-0.121
8.056	-0.122
8.057	-0.122
8.058	-0.119
8.059	-0.115
8.06	-0.109
8.061	-0.103
8.062	-0.097
8.063	-0.091
8.064	-0.084
8.065	-0.078
8.066	-0.073
8.067	-0.069
8.068	-0.065
8.069	-0.062
8.07	-0.061
8.071	-0.06
8.072	-0.059
8.073	-0.06
8.074	-0.06
8.075	-0.061
8.076	-0.062
8.077	-0.064
8.078	-0.065
8.079	-0.066
8.08	-0.066
8.081	-0.066
8.082	-0.066
8.083	-0.066
8.084	-0.065
8.085	-0.064
8.086	-0.063
8.087	-0.062
8.088	-0.061
8.089	-0.06
8.09	-0.06
8.091	-0.059
8.092	-0.059
8.093	-0.059
8.094	-0.059
8.095	-0.059
8.096	-0.059
8.097	-0.06
8.098	-0.06
8.099	-0.06
8.1	-0.061
8.101	-0.061
8.102	-0.061
8.103	-0.061
8.104	-0.06
8.105	-0.06
8.106	-0.059
8.107	-0.059
8.108	-0.058
8.109	-0.057
8.11	-0.057
8.111	-0.056
8.112	-0.056
8.113	-0.056
8.114	-0.055
8.115	-0.055
8.116	-0.055
8.117	-0.055
8.118	-0.056
8.119	-0.056
8.12	-0.056
8.121	-0.056
8.122	-0.056
8.123	-0.056
8.124	-0.056
8.125	-0.056
8.126	-0.055
8.127	-0.055
8.128	-0.055
8.129	-0.054
8.13	-0.054
8.131	-0.053
8.132	-0.053
8.133	-0.053
8.134	-0.053
8.135	-0.052
8.136	-0.052
8.137	-0.052
8.138	-0.052
8.139	-0.052
8.14	-0.052
8.141	-0.052
8.142	-0.052
8.143	-0.052
8.144	-0.052
8.145	-0.052
8.146	-0.052
8.147	-0.051
8.148	-0.051
8.149	-0.051
8.15	-0.05
8.151	-0.05
8.152	-0.05
8.153	-0.05
8.154	-0.049
8.155	-0.049
8.156	-0.049
8.157	-0.049
8.158	-0.049
8.159	-0.048
8.16	-0.048
8.161	-0.048
8.162	-0.048
8.163	-0.048
8.164	-0.048
8.165	-0.048
8.166	-0.048
8.167	-0.048
8.168	-0.047
8.169	-0.047
8.17	-0.047
8.171	-0.047
8.172	-0.047
8.173	-0.046
8.174	-0.046
8.175	-0.046
8.176	-0.046
8.177	-0.046
8.178	-0.046
8.179	-0.045
8.18	-0.045
8.181	-0.045
8.182	-0.045
8.183	-0.045
8.184	-0.045
8.185	-0.045
8.186	-0.045
8.187	-0.044
8.188	-0.044
8.189	-0.043
8.19	-0.042
8.191	-0.041
8.192	-0.04
8.193	-0.039
8.194	-0.037
8.195	-0.035
8.196	-0.033
8.197	-0.03
8.198	-0.027
8.199	-0.024
8.2	-0.02
8.201	-0.016
8.202	-0.012
8.203	-0.008
8.204	-0.003
8.205	0.001
8.206	0.006
8.207	0.011
8.208	0.015
8.209	0.02
8.21	0.025
8.211	0.029
8.212	0.033
8.213	0.038
8.214	0.042
8.215	0.046
8.216	0.05
8.217	0.054
8.218	0.058
8.219	0.062
8.22	0.065
8.221	0.069
8.222	0.073
8.223	0.077
8.224	0.081
8.225	0.085
8.226	0.089
8.227	0.093
8.228	0.097
8.229	0.101
8.23	0.105
8.231	0.109
8.232	0.113
8.233	0.117
8.234	0.121
8.235	0.124
8.236	0.128
8.237	0.131
8.238	0.134
8.239	0.137
8.24	0.139
8.241	0.142
8.242	0.144
8.243	0.146
8.244	0.148
8.245	0.15
8.246	0.152
8.247	0.153
8.248	0.155
8.249	0.156
8.25	0.157
8.251	0.159
8.252	0.16
8.253	0.162
8.254	0.163
8.255	0.164
8.256	0.166
8.257	0.167
8.258	0.168
8.259	0.17
8.26	0.171
8.261	0.172
8.262	0.173
8.263	0.174
8.264	0.175
8.265	0.176
8.266	0.177
8.267	0.177
8.268	0.178
8.269	0.178
8.27	0.178
8.271	0.178
8.272	0.178
8.273	0.178
8.274	0.178
8.275	0.178
8.276	0.177
8.277	0.177
8.278	0.176
8.279	0.175
8.28	0.175
8.281	0.174
8.282	0.173
8.283	0.171
8.284	0.17
8.285	0.168
8.286	0.166
8.287	0.164
8.288	0.162
8.289	0.159
8.29	0.156
8.291	0.153
8.292	0.15
8.293	0.147
8.294	0.143
8.295	0.139
8.296	0.136
8.297	0.132
8.298	0.128
8.299	0.124
8.3	0.12
8.301	0.116
8.302	0.112
8.303	0.107
8.304	0.103
8.305	0.099
8.306	0.095
8.307	0.09
8.308	0.086
8.309	0.081
8.31	0.076
8.311	0.071
8.312	0.066
8.313	0.061
8.314	0.056
8.315	0.05
8.316	0.045
8.317	0.039
8.318	0.033
8.319	0.028
8.32	0.022
8.321	0.016
8.322	0.011
8.323	0.005
8.324	0
8.325	-0.006
8.326	-0.011
8.327	-0.016
8.328	-0.021
8.329	-0.026
8.33	-0.031
8.331	-0.036
8.332	-0.04
8.333	-0.045
8.334	-0.049
8.335	-0.053
8.336	-0.057
8.337	-0.06
8.338	-0.064
8.339	-0.067
8.34	-0.069
8.341	-0.072
8.342	-0.074
8.343	-0.076
8.344	-0.077
8.345	-0.079
8.346	-0.08
8.347	-0.08
8.348	-0.081
8.349	-0.081
8.35	-0.081
8.351	-0.081
8.352	-0.081
8.353	-0.081
8.354	-0.08
8.355	-0.08
8.356	-0.08
8.357	-0.079
8.358	-0.079
8.359	-0.079
8.36	-0.079
8.361	-0.078
8.362	-0.078
8.363	-0.078
8.364	-0.078
8.365	-0.078
8.366	-0.077
8.367	-0.077
8.368	-0.077
8.369	-0.077
8.37	-0.076
8.371	-0.076
8.372	-0.076
8.373	-0.075
8.374	-0.075
8.375	-0.075
8.376	-0.074
8.377	-0.074
8.378	-0.074
8.379	-0.074
8.38	-0.073
8.381	-0.073
8.382	-0.073
8.383	-0.073
8.384	-0.072
8.385	-0.072
8.386	-0.072
8.387	-0.072
8.388	-0.072
8.389	-0.071
8.39	-0.071
8.391	-0.071
8.392	-0.071
8.393	-0.07
8.394	-0.07
8.395	-0.07
8.396	-0.07
8.397	-0.07
8.398	-0.069
8.399	-0.069
8.4	-0.069
8.401	-0.069
8.402	-0.069
8.403	-0.068
8.404	-0.068
8.405	-0.068
8.406	-0.068
8.407	-0.067
8.408	-0.067
8.409	-0.067
8.41	-0.067
8.411	-0.066
8.412	-0.066
8.413	-0.066
8.414	-0.066
8.415	-0.066
8.416	-0.065
8.417	-0.065
8.418	-0.065
8.419	-0.065
8.42	-0.065
8.421	-0.064
8.422	-0.064
8.423	-0.064
8.424	-0.064
8.425	-0.064
8.426	-0.063
8.427	-0.063
8.428	-0.063
8.429	-0.063
8.43	-0.062
8.431	-0.062
8.432	-0.062
8.433	-0.062
8.434	-0.062
8.435	-0.061
8.436	-0.061
8.437	-0.061
8.438	-0.061
8.439	-0.061
8.44	-0.061
8.441	-0.06
8.442	-0.06
8.443	-0.06
8.444	-0.06
8.445	-0.06
8.446	-0.06
8.447	-0.059
8.448	-0.059
8.449	-0.059
8.45	-0.059
8.451	-0.058
8.452	-0.058
8.453	-0.058
8.454	-0.058
8.455	-0.057
8.456	-0.057
8.457	-0.057
8.458	-0.057
8.459	-0.057
8.46	-0.056
8.461	-0.056
8.462	-0.056
8.463	-0.056
8.464	-0.056
8.465	-0.056
8.466	-0.056
8.467	-0.055
8.468	-0.055
8.469	-0.055
8.47	-0.055
8.471	-0.055
8.472	-0.054
8.473	-0.054
8.474	-0.054
8.475	-0.054
8.476	-0.054
8.477	-0.053
8.478	-0.053
8.479	-0.053
8.48	-0.053
8.481	-0.053
8.482	-0.053
8.483	-0.052
8.484	-0.052
8.485	-0.052
8.486	-0.052
8.487	-0.052
8.488	-0.051
8.489	-0.051
8.49	-0.051
8.491	-0.051
8.492	-0.051
8.493	-0.05
8.494	-0.05
8.495	-0.05
8.496	-0.05
8.497	-0.05
8.498	-0.05
8.499	-0.049
8.5	-0.049
8.501	-0.049
8.502	-0.049
8.503	-0.049
8.504	-0.049
8.505	-0.049
8.506	-0.048
8.507	-0.048
8.508	-0.048
8.509	-0.048
8.51	-0.048
8.511	-0.048
8.512	-0.047
8.513	-0.047
8.514	-0.047
8.515	-0.047
8.516	-0.047
8.517	-0.047
8.518	-0.047
8.519	-0.046
8.52	-0.046
8.521	-0.046
8.522	-0.046
8.523	-0.046
8.524	-0.046
8.525	-0.046
8.526	-0.045
8.527	-0.045
8.528	-0.045
8.529	-0.045
8.53	-0.045
8.531	-0.045
8.532	-0.045
8.533	-0.044
8.534	-0.044
8.535	-0.044
8.536	-0.044
8.537	-0.044
8.538	-0.044
8.539	-0.044
8.54	-0.043
8.541	-0.043
8.542	-0.043
8.543	-0.043
8.544	-0.043
8.545	-0.043
8.546	-0.043
8.547	-0.042
8.548	-0.042
8.549	-0.042
8.55	-0.042
8.551	-0.042
8.552	-0.042
8.553	-0.041
8.554	-0.041
8.555	-0.041
8.556	-0.041
8.557	-0.041
8.558	-0.041
8.559	-0.041
8.56	-0.041
8.561	-0.04
8.562	-0.04
8.563	-0.04
8.564	-0.04
8.565	-0.04
8.566	-0.04
8.567	-0.04
8.568	-0.04
8.569	-0.039
8.57	-0.039
8.571	-0.039
8.572	-0.039
8.573	-0.039
8.574	-0.039
8.575	-0.039
8.576	-0.038
8.577	-0.038
8.578	-0.038
8.579	-0.038
8.58	-0.038
8.581	-0.038
8.582	-0.038
8.583	-0.038
8.584	-0.037
8.585	-0.037
8.586	-0.037
8.587	-0.037
8.588	-0.037
8.589	-0.037
8.59	-0.036
8.591	-0.036
8.592	-0.036
8.593	-0.036
8.594	-0.036
8.595	-0.036
8.596	-0.036
8.597	-0.036
8.598	-0.036
8.599	-0.035
8.6	-0.035
8.601	-0.035
8.602	-0.035
8.603	-0.035
8.604	-0.035
8.605	-0.035
8.606	-0.035
8.607	-0.035
8.608	-0.035
8.609	-0.035
8.61	-0.034
8.611	-0.034
8.612	-0.034
8.613	-0.034
8.614	-0.034
8.615	-0.034
8.616	-0.033
8.617	-0.033
8.618	-0.033
8.619	-0.033
8.62	-0.033
8.621	-0.033
8.622	-0.033
8.623	-0.033
8.624	-0.032
8.625	-0.032
8.626	-0.032
8.627	-0.032
8.628	-0.032
8.629	-0.032
8.63	-0.032
8.631	-0.032
8.632	-0.032
8.633	-0.032
8.634	-0.031
8.635	-0.031
8.636	-0.031
8.637	-0.031
8.638	-0.031
8.639	-0.031
8.64	-0.031
8.641	-0.031
8.642	-0.031
8.643	-0.03
8.644	-0.03
8.645	-0.03
8.646	-0.03
8.647	-0.03
8.648	-0.03
8.649	-0.03
8.65	-0.03
8.651	-0.03
8.652	-0.03
8.653	-0.03
8.654	-0.029
8.655	-0.029
8.656	-0.029
8.657	-0.029
8.658	-0.029
8.659	-0.029
8.66	-0.029
8.661	-0.029
8.662	-0.028
8.663	-0.028
8.664	-0.028
8.665	-0.028
8.666	-0.028
8.667	-0.028
8.668	-0.028
8.669	-0.028
8.67	-0.028
8.671	-0.028
8.672	-0.028
8.673	-0.028
8.674	-0.028
8.675	-0.028
8.676	-0.027
8.677	-0.027
8.678	-0.027
8.679	-0.027
8.68	-0.027
8.681	-0.027
8.682	-0.026
8.683	-0.026
8.684	-0.026
8.685	-0.026
8.686	-0.026
8.687	-0.026
8.688	-0.026
8.689	-0.026
8.69	-0.026
8.691	-0.026
8.692	-0.026
8.693	-0.026
8.694	-0.026
8.695	-0.026
8.696	-0.026
8.697	-0.025
8.698	-0.025
8.699	-0.025
8.7	-0.025
8.701	-0.025
8.702	-0.025
8.703	-0.025
8.704	-0.025
8.705	-0.025
8.706	-0.025
8.707	-0.025
8.708	-0.025
8.709	-0.025
8.71	-0.025
8.711	-0.025
8.712	-0.025
8.713	-0.025
8.714	-0.025
8.715	-0.025
8.716	-0.024
8.717	-0.024
8.718	-0.023
8.719	-0.023
8.72	-0.023
8.721	-0.023
8.722	-0.023
8.723	-0.022
8.724	-0.023
8.725	-0.023
8.726	-0.023
8.727	-0.023
8.728	-0.023
8.729	-0.023
8.73	-0.023
8.731	-0.023
8.732	-0.022
8.733	-0.021
8.734	-0.019
8.735	-0.016
8.736	-0.014
8.737	-0.01
8.738	-0.006
8.739	-0.002
8.74	0.003
8.741	0.008
8.742	0.014
8.743	0.02
8.744	0.025
8.745	0.031
8.746	0.037
8.747	0.042
8.748	0.047
8.749	0.052
8.75	0.056
8.751	0.06
8.752	0.063
8.753	0.066
8.754	0.069
8.755	0.072
8.756	0.074
8.757	0.077
8.758	0.079
8.759	0.082
8.76	0.084
8.761	0.087
8.762	0.089
8.763	0.092
8.764	0.095
8.765	0.097
8.766	0.099
8.767	0.101
8.768	0.103
8.769	0.104
8.77	0.105
8.771	0.105
8.772	0.105
8.773	0.104
8.774	0.103
8.775	0.101
8.776	0.099
8.777	0.096
8.778	0.093
8.779	0.089
8.78	0.086
8.781	0.082
8.782	0.078
8.783	0.074
8.784	0.069
8.785	0.065
8.786	0.061
8.787	0.057
8.788	0.052
8.789	0.048
8.79	0.043
8.791	0.038
8.792	0.034
8.793	0.029
8.794	0.024
8.795	0.018
8.796	0.013
8.797	0.008
8.798	0.003
8.799	-0.002
8.8	-0.006
8.801	-0.011
8.802	-0.015
8.803	-0.018
8.804	-0.021
8.805	-0.024
8.806	-0.026
8.807	-0.028
8.808	-0.03
8.809	-0.031
8.81	-0.031
8.811	-0.032
8.812	-0.032
8.813	-0.032
8.814	-0.032
8.815	-0.032
8.816	-0.032
8.817	-0.032
8.818	-0.031
8.819	-0.031
8.82	-0.031
8.821	-0.031
8.822	-0.032
8.823	-0.032
8.824	-0.032
8.825	-0.032
8.826	-0.032
8.827	-0.032
8.828	-0.032
8.829	-0.032
8.83	-0.032
8.831	-0.031
8.832	-0.031
8.833	-0.031
8.834	-0.031
8.835	-0.03
8.836	-0.03
8.837	-0.03
8.838	-0.03
8.839	-0.029
8.84	-0.029
8.841	-0.029
8.842	-0.029
8.843	-0.029
8.844	-0.029
8.845	-0.03
8.846	-0.03
8.847	-0.03
8.848	-0.03
8.849	-0.03
8.85	-0.03
8.851	-0.029
8.852	-0.029
8.853	-0.029
8.854	-0.029
8.855	-0.029
8.856	-0.028
8.857	-0.028
8.858	-0.028
8.859	-0.027
8.86	-0.027
8.861	-0.027
8.862	-0.027
8.863	-0.027
8.864	-0.027
8.865	-0.027
8.866	-0.027
8.867	-0.027
8.868	-0.027
8.869	-0.027
8.87	-0.027
8.871	-0.028
8.872	-0.028
8.873	-0.028
8.874	-0.028
8.875	-0.027
8.876	-0.027
8.877	-0.027
8.878	-0.026
8.879	-0.026
8.88	-0.025
8.881	-0.024
8.882	-0.024
8.883	-0.023
8.884	-0.023
8.885	-0.023
8.886	-0.023
8.887	-0.024
8.888	-0.025
8.889	-0.027
8.89	-0.03
8.891	-0.033
8.892	-0.038
8.893	-0.043
8.894	-0.049
8.895	-0.055
8.896	-0.063
8.897	-0.071
8.898	-0.078
8.899	-0.086
8.9	-0.093
8.901	-0.099
8.902	-0.104
8.903	-0.106
8.904	-0.106
8.905	-0.104
8.906	-0.098
8.907	-0.089
8.908	-0.075
8.909	-0.057
8.91	-0.035
8.911	-0.009
8.912	0.021
8.913	0.056
8.914	0.094
8.915	0.134
8.916	0.177
8.917	0.222
8.918	0.267
8.919	0.312
8.92	0.356
8.921	0.397
8.922	0.436
8.923	0.472
8.924	0.502
8.925	0.527
8.926	0.547
8.927	0.562
8.928	0.569
8.929	0.57
8.93	0.565
8.931	0.554
8.932	0.538
8.933	0.516
8.934	0.489
8.935	0.458
8.936	0.424
8.937	0.388
8.938	0.349
8.939	0.309
8.94	0.268
8.941	0.228
8.942	0.188
8.943	0.149
8.944	0.112
8.945	0.077
8.946	0.045
8.947	0.016
8.948	-0.011
8.949	-0.034
8.95	-0.054
8.951	-0.07
8.952	-0.084
8.953	-0.094
8.954	-0.101
8.955	-0.106
8.956	-0.108
8.957	-0.108
8.958	-0.106
8.959	-0.102
8.96	-0.097
8.961	-0.091
8.962	-0.085
8.963	-0.079
8.964	-0.073
8.965	-0.067
8.966	-0.061
8.967	-0.057
8.968	-0.053
8.969	-0.05
8.97	-0.048
8.971	-0.046
8.972	-0.046
8.973	-0.046
8.974	-0.047
8.975	-0.048
8.976	-0.049
8.977	-0.05
8.978	-0.051
8.979	-0.052
8.98	-0.053
8.981	-0.054
8.982	-0.054
8.983	-0.053
8.984	-0.053
8.985	-0.052
8.986	-0.051
8.987	-0.05
8.988	-0.049
8.989	-0.048
8.99	-0.047
8.991	-0.047
8.992	-0.046
8.993	-0.046
8.994	-0.046
8.995	-0.046
8.996	-0.046
8.997	-0.047
8.998	-0.047
8.999	-0.048
9	-0.048
9.001	-0.048
9.002	-0.048
9.003	-0.048
9.004	-0.048
9.005	-0.048
9.006	-0.047
9.007	-0.047
9.008	-0.046
9.009	-0.046
9.01	-0.045
9.011	-0.045
9.012	-0.044
9.013	-0.044
9.014	-0.044
9.015	-0.044
9.016	-0.044
9.017	-0.044
9.018	-0.044
9.019	-0.044
9.02	-0.044
9.021	-0.045
9.022	-0.045
9.023	-0.045
9.024	-0.044
9.025	-0.044
9.026	-0.044
9.027	-0.044
9.028	-0.043
9.029	-0.043
9.03	-0.042
9.031	-0.042
9.032	-0.042
9.033	-0.041
9.034	-0.041
9.035	-0.041
9.036	-0.041
9.037	-0.041
9.038	-0.041
9.039	-0.041
9.04	-0.041
9.041	-0.041
9.042	-0.041
9.043	-0.041
9.044	-0.041
9.045	-0.041
9.046	-0.041
9.047	-0.041
9.048	-0.041
9.049	-0.04
9.05	-0.04
9.051	-0.04
9.052	-0.04
9.053	-0.039
9.054	-0.039
9.055	-0.039
9.056	-0.039
9.057	-0.038
9.058	-0.038
9.059	-0.038
9.06	-0.038
9.061	-0.038
9.062	-0.038
9.063	-0.038
9.064	-0.038
9.065	-0.038
9.066	-0.038
9.067	-0.038
9.068	-0.038
9.069	-0.038
9.07	-0.038
9.071	-0.037
9.072	-0.037
9.073	-0.037
9.074	-0.037
9.075	-0.037
9.076	-0.036
9.077	-0.036
9.078	-0.036
9.079	-0.036
9.08	-0.036
9.081	-0.036
9.082	-0.036
9.083	-0.036
9.084	-0.036
9.085	-0.035
9.086	-0.035
9.087	-0.035
9.088	-0.035
9.089	-0.034
9.09	-0.034
9.091	-0.033
9.092	-0.032
9.093	-0.031
9.094	-0.029
9.095	-0.027
9.096	-0.025
9.097	-0.022
9.098	-0.019
9.099	-0.016
9.1	-0.012
9.101	-0.009
9.102	-0.005
9.103	0
9.104	0.004
9.105	0.009
9.106	0.013
9.107	0.018
9.108	0.023
9.109	0.027
9.11	0.032
9.111	0.036
9.112	0.04
9.113	0.045
9.114	0.049
9.115	0.053
9.116	0.057
9.117	0.061
9.118	0.065
9.119	0.069
9.12	0.072
9.121	0.076
9.122	0.08
9.123	0.084
9.124	0.088
9.125	0.092
9.126	0.096
9.127	0.1
9.128	0.104
9.129	0.108
9.13	0.112
9.131	0.116
9.132	0.12
9.133	0.124
9.134	0.127
9.135	0.131
9.136	0.134
9.137	0.137
9.138	0.14
9.139	0.143
9.14	0.146
9.141	0.149
9.142	0.151
9.143	0.153
9.144	0.155
9.145	0.157
9.146	0.159
9.147	0.16
9.148	0.162
9.149	0.163
9.15	0.165
9.151	0.166
9.152	0.168
9.153	0.169
9.154	0.17
9.155	0.171
9.156	0.173
9.157	0.174
9.158	0.175
9.159	0.176
9.16	0.178
9.161	0.179
9.162	0.18
9.163	0.181
9.164	0.182
9.165	0.182
9.166	0.183
9.167	0.184
9.168	0.184
9.169	0.185
9.17	0.185
9.171	0.185
9.172	0.185
9.173	0.185
9.174	0.185
9.175	0.184
9.176	0.184
9.177	0.184
9.178	0.183
9.179	0.182
9.18	0.182
9.181	0.181
9.182	0.18
9.183	0.178
9.184	0.177
9.185	0.175
9.186	0.174
9.187	0.172
9.188	0.169
9.189	0.167
9.19	0.164
9.191	0.161
9.192	0.158
9.193	0.155
9.194	0.151
9.195	0.147
9.196	0.144
9.197	0.14
9.198	0.136
9.199	0.132
9.2	0.128
9.201	0.124
9.202	0.12
9.203	0.115
9.204	0.111
9.205	0.107
9.206	0.103
9.207	0.098
9.208	0.094
9.209	0.089
9.21	0.084
9.211	0.079
9.212	0.074
9.213	0.069
9.214	0.064
9.215	0.058
9.216	0.053
9.217	0.047
9.218	0.041
9.219	0.036
9.22	0.03
9.221	0.025
9.222	0.019
9.223	0.013
9.224	0.008
9.225	0.002
9.226	-0.003
9.227	-0.008
9.228	-0.013
9.229	-0.018
9.23	-0.023
9.231	-0.028
9.232	-0.032
9.233	-0.037
9.234	-0.041
9.235	-0.046
9.236	-0.05
9.237	-0.053
9.238	-0.057
9.239	-0.06
9.24	-0.063
9.241	-0.066
9.242	-0.068
9.243	-0.07
9.244	-0.072
9.245	-0.073
9.246	-0.074
9.247	-0.075
9.248	-0.075
9.249	-0.076
9.25	-0.076
9.251	-0.076
9.252	-0.076
9.253	-0.075
9.254	-0.075
9.255	-0.075
9.256	-0.074
9.257	-0.074
9.258	-0.074
9.259	-0.073
9.26	-0.073
9.261	-0.073
9.262	-0.073
9.263	-0.073
9.264	-0.072
9.265	-0.072
9.266	-0.072
9.267	-0.072
9.268	-0.072
9.269	-0.071
9.27	-0.071
9.271	-0.071
9.272	-0.071
9.273	-0.07
9.274	-0.07
9.275	-0.07
9.276	-0.069
9.277	-0.069
9.278	-0.069
9.279	-0.068
9.28	-0.068
9.281	-0.068
9.282	-0.068
9.283	-0.068
9.284	-0.068
9.285	-0.067
9.286	-0.067
9.287	-0.067
9.288	-0.067
9.289	-0.067
9.29	-0.066
9.291	-0.066
9.292	-0.066
9.293	-0.066
9.294	-0.065
9.295	-0.065
9.296	-0.065
9.297	-0.065
9.298	-0.064
9.299	-0.064
9.3	-0.064
9.301	-0.064
9.302	-0.064
9.303	-0.063
9.304	-0.063
9.305	-0.063
9.306	-0.063
9.307	-0.063
9.308	-0.063
9.309	-0.062
9.31	-0.062
9.311	-0.062
9.312	-0.062
9.313	-0.062
9.314	-0.061
9.315	-0.061
9.316	-0.061
9.317	-0.061
9.318	-0.061
9.319	-0.06
9.32	-0.06
9.321	-0.06
9.322	-0.06
9.323	-0.06
9.324	-0.059
9.325	-0.059
9.326	-0.059
9.327	-0.059
9.328	-0.059
9.329	-0.058
9.33	-0.058
9.331	-0.058
9.332	-0.058
9.333	-0.057
9.334	-0.057
9.335	-0.057
9.336	-0.057
9.337	-0.057
9.338	-0.057
9.339	-0.056
9.34	-0.056
9.341	-0.056
9.342	-0.056
9.343	-0.056
9.344	-0.056
9.345	-0.055
9.346	-0.055
9.347	-0.055
9.348	-0.055
9.349	-0.055
9.35	-0.054
9.351	-0.054
9.352	-0.054
9.353	-0.054
9.354	-0.054
9.355	-0.054
9.356	-0.053
9.357	-0.053
9.358	-0.053
9.359	-0.053
9.36	-0.053
9.361	-0.053
9.362	-0.052
9.363	-0.052
9.364	-0.052
9.365	-0.052
9.366	-0.052
9.367	-0.052
9.368	-0.051
9.369	-0.051
9.37	-0.051
9.371	-0.051
9.372	-0.051
9.373	-0.05
9.374	-0.05
9.375	-0.05
9.376	-0.05
9.377	-0.05
9.378	-0.049
9.379	-0.049
9.38	-0.049
9.381	-0.049
9.382	-0.049
9.383	-0.049
9.384	-0.048
9.385	-0.048
9.386	-0.048
9.387	-0.048
9.388	-0.048
9.389	-0.048
9.39	-0.048
9.391	-0.048
9.392	-0.047
9.393	-0.047
9.394	-0.047
9.395	-0.047
9.396	-0.047
9.397	-0.047
9.398	-0.047
9.399	-0.046
9.4	-0.046
9.401	-0.046
9.402	-0.046
9.403	-0.046
9.404	-0.046
9.405	-0.045
9.406	-0.045
9.407	-0.045
9.408	-0.045
9.409	-0.045
9.41	-0.045
9.411	-0.045
9.412	-0.045
9.413	-0.044
9.414	-0.044
9.415	-0.044
9.416	-0.044
9.417	-0.044
9.418	-0.044
9.419	-0.044
9.42	-0.043
9.421	-0.043
9.422	-0.043
9.423	-0.043
9.424	-0.043
9.425	-0.042
9.426	-0.042
9.427	-0.042
9.428	-0.042
9.429	-0.042
9.43	-0.042
9.431	-0.041
9.432	-0.041
9.433	-0.041
9.434	-0.041
9.435	-0.041
9.436	-0.041
9.437	-0.041
9.438	-0.041
9.439	-0.041
9.44	-0.04
9.441	-0.04
9.442	-0.04
9.443	-0.04
9.444	-0.04
9.445	-0.04
9.446	-0.039
9.447	-0.039
9.448	-0.039
9.449	-0.039
9.45	-0.039
9.451	-0.039
9.452	-0.038
9.453	-0.038
9.454	-0.038
9.455	-0.038
9.456	-0.038
9.457	-0.038
9.458	-0.038
9.459	-0.038
9.46	-0.038
9.461	-0.038
9.462	-0.037
9.463	-0.037
9.464	-0.037
9.465	-0.037
9.466	-0.037
9.467	-0.037
9.468	-0.037
9.469	-0.036
9.47	-0.036
9.471	-0.036
9.472	-0.036
9.473	-0.036
9.474	-0.036
9.475	-0.036
9.476	-0.036
9.477	-0.035
9.478	-0.035
9.479	-0.035
9.48	-0.035
9.481	-0.035
9.482	-0.035
9.483	-0.035
9.484	-0.035
9.485	-0.035
9.486	-0.035
9.487	-0.034
9.488	-0.034
9.489	-0.034
9.49	-0.034
9.491	-0.034
9.492	-0.034
9.493	-0.034
9.494	-0.034
9.495	-0.033
9.496	-0.033
9.497	-0.033
9.498	-0.033
9.499	-0.033
9.5	-0.033
9.501	-0.033
9.502	-0.033
9.503	-0.033
9.504	-0.032
9.505	-0.032
9.506	-0.032
9.507	-0.032
9.508	-0.032
9.509	-0.032
9.51	-0.032
9.511	-0.032
9.512	-0.032
9.513	-0.031
9.514	-0.031
9.515	-0.031
9.516	-0.031
9.517	-0.031
9.518	-0.031
9.519	-0.031
9.52	-0.031
9.521	-0.031
9.522	-0.031
9.523	-0.031
9.524	-0.03
9.525	-0.03
9.526	-0.03
9.527	-0.03
9.528	-0.03
9.529	-0.03
9.53	-0.03
9.531	-0.03
9.532	-0.03
9.533	-0.03
9.534	-0.03
9.535	-0.029
9.536	-0.029
9.537	-0.029
9.538	-0.029
9.539	-0.029
9.54	-0.029
9.541	-0.029
9.542	-0.029
9.543	-0.028
9.544	-0.028
9.545	-0.028
9.546	-0.028
9.547	-0.028
9.548	-0.028
9.549	-0.028
9.55	-0.028
9.551	-0.028
9.552	-0.027
9.553	-0.027
9.554	-0.027
9.555	-0.027
9.556	-0.027
9.557	-0.027
9.558	-0.027
9.559	-0.027
9.56	-0.027
9.561	-0.027
9.562	-0.027
9.563	-0.027
9.564	-0.027
9.565	-0.027
9.566	-0.026
9.567	-0.026
9.568	-0.026
9.569	-0.026
9.57	-0.026
9.571	-0.026
9.572	-0.026
9.573	-0.026
9.574	-0.026
9.575	-0.025
9.576	-0.025
9.577	-0.025
9.578	-0.025
9.579	-0.025
9.58	-0.025
9.581	-0.025
9.582	-0.025
9.583	-0.025
9.584	-0.025
9.585	-0.024
9.586	-0.024
9.587	-0.024
9.588	-0.024
